sample,time_s,adc
0,0.0,882
1,0.001,898
2,0.002,902
3,0.003,939
4,0.004,890
5,0.005,882
6,0.006,886
7,0.007,880
8,0.008,815
9,0.009,877
10,0.01,891
11,0.011,829
12,0.012,880
13,0.013,877
14,0.014,875
15,0.015,893
16,0.016,864
17,0.017,887
18,0.018,843
19,0.019,895
20,0.02,896
21,0.021,896
22,0.022,971
23,0.023,886
24,0.024,880
25,0.025,879
26,0.026,887
27,0.027,825
28,0.028,828
29,0.029,869
30,0.03,873
31,0.031,879
32,0.032,896
33,0.033,895
34,0.034,899
35,0.035,903
36,0.036,877
37,0.037,865
38,0.038,877
39,0.039,766
40,0.04,889
41,0.041,912
42,0.042,880
43,0.043,880
44,0.044,877
45,0.045,896
46,0.046,893
47,0.047,880
48,0.048,886
49,0.049,807
50,0.05,889
51,0.051,847
52,0.052,843
53,0.053,864
54,0.054,859
55,0.055,879
56,0.056,880
57,0.057,886
58,0.058,881
59,0.059,883
60,0.06,882
61,0.061,898
62,0.062,899
63,0.063,897
64,0.064,884
65,0.065,881
66,0.066,880
67,0.067,873
68,0.068,870
69,0.069,803
70,0.07,881
71,0.071,880
72,0.072,880
73,0.073,877
74,0.074,878
75,0.075,848
76,0.076,882
77,0.077,880
78,0.078,886
79,0.079,883
80,0.08,881
81,0.081,882
82,0.082,879
83,0.083,879
84,0.084,880
85,0.085,879
86,0.086,887
87,0.087,898
88,0.088,886
89,0.089,794
90,0.09,880
91,0.091,873
92,0.092,907
93,0.093,880
94,0.094,879
95,0.095,874
96,0.096,886
97,0.097,884
98,0.098,882
99,0.099,886
100,0.1,886
101,0.101,882
102,0.102,898
103,0.103,889
104,0.104,864
105,0.105,907
106,0.106,874
107,0.107,849
108,0.108,870
109,0.109,894
110,0.11,879
111,0.111,886
112,0.112,847
113,0.113,883
114,0.114,876
115,0.115,881
116,0.116,870
117,0.117,866
118,0.118,880
119,0.119,935
120,0.12,903
121,0.121,903
122,0.122,903
123,0.123,886
124,0.124,847
125,0.125,833
126,0.126,872
127,0.127,863
128,0.128,867
129,0.129,861
130,0.13,865
131,0.131,877
132,0.132,874
133,0.133,885
134,0.134,883
135,0.135,885
136,0.136,889
137,0.137,899
138,0.138,886
139,0.139,901
140,0.14,892
141,0.141,902
142,0.142,890
143,0.143,880
144,0.144,880
145,0.145,885
146,0.146,887
147,0.147,874
148,0.148,880
149,0.149,874
150,0.15,875
151,0.151,881
152,0.152,881
153,0.153,873
154,0.154,880
155,0.155,881
156,0.156,883
157,0.157,882
158,0.158,893
159,0.159,880
160,0.16,883
161,0.161,881
162,0.162,890
163,0.163,876
164,0.164,880
165,0.165,896
166,0.166,880
167,0.167,873
168,0.168,883
169,0.169,880
170,0.17,881
171,0.171,880
172,0.172,884
173,0.173,890
174,0.174,891
175,0.175,889
176,0.176,885
177,0.177,875
178,0.178,880
179,0.179,882
180,0.18,880
181,0.181,867
182,0.182,876
183,0.183,880
184,0.184,880
185,0.185,880
186,0.186,883
187,0.187,880
188,0.188,880
189,0.189,847
190,0.19,880
191,0.191,880
192,0.192,875
193,0.193,880
194,0.194,877
195,0.195,877
196,0.196,880
197,0.197,880
198,0.198,885
199,0.199,885
200,0.2,890
201,0.201,886
202,0.202,881
203,0.203,878
204,0.204,877
205,0.205,883
206,0.206,887
207,0.207,871
208,0.208,879
209,0.209,880
210,0.21,871
211,0.211,875
212,0.212,869
213,0.213,899
214,0.214,866
215,0.215,896
216,0.216,880
217,0.217,880
218,0.218,877
219,0.219,879
220,0.22,889
221,0.221,891
222,0.222,886
223,0.223,876
224,0.224,891
225,0.225,887
226,0.226,880
227,0.227,866
228,0.228,885
229,0.229,866
230,0.23,865
231,0.231,874
232,0.232,877
233,0.233,877
234,0.234,802
235,0.235,857
236,0.236,874
237,0.237,887
238,0.238,884
239,0.239,880
240,0.24,884
241,0.241,886
242,0.242,883
243,0.243,929
244,0.244,902
245,0.245,880
246,0.246,871
247,0.247,874
248,0.248,871
249,0.249,867
250,0.25,870
251,0.251,869
252,0.252,873
253,0.253,866
254,0.254,881
255,0.255,876
256,0.256,890
257,0.257,895
258,0.258,917
259,0.259,927
260,0.26,923
261,0.261,906
262,0.262,910
263,0.263,880
264,0.264,817
265,0.265,842
266,0.266,851
267,0.267,860
268,0.268,851
269,0.269,865
270,0.27,861
271,0.271,875
272,0.272,883
273,0.273,882
274,0.274,887
275,0.275,880
276,0.276,885
277,0.277,894
278,0.278,912
279,0.279,915
280,0.28,938
281,0.281,933
282,0.282,918
283,0.283,882
284,0.284,850
285,0.285,839
286,0.286,841
287,0.287,854
288,0.288,851
289,0.289,865
290,0.29,873
291,0.291,870
292,0.292,882
293,0.293,880
294,0.294,883
295,0.295,885
296,0.296,875
297,0.297,881
298,0.298,891
299,0.299,887
300,0.3,887
301,0.301,911
302,0.302,919
303,0.303,882
304,0.304,882
305,0.305,880
306,0.306,880
307,0.307,876
308,0.308,883
309,0.309,883
310,0.31,878
311,0.311,879
312,0.312,880
313,0.313,880
314,0.314,878
315,0.315,883
316,0.316,883
317,0.317,885
318,0.318,895
319,0.319,892
320,0.32,887
321,0.321,897
322,0.322,896
323,0.323,895
324,0.324,886
325,0.325,883
326,0.326,870
327,0.327,861
328,0.328,848
329,0.329,853
330,0.33,867
331,0.331,870
332,0.332,881
333,0.333,1072
334,0.334,880
335,0.335,879
336,0.336,880
337,0.337,877
338,0.338,877
339,0.339,880
340,0.34,890
341,0.341,891
342,0.342,892
343,0.343,881
344,0.344,896
345,0.345,883
346,0.346,883
347,0.347,909
348,0.348,849
349,0.349,885
350,0.35,889
351,0.351,874
352,0.352,893
353,0.353,877
354,0.354,879
355,0.355,881
356,0.356,878
357,0.357,890
358,0.358,881
359,0.359,890
360,0.36,890
361,0.361,885
362,0.362,896
363,0.363,893
364,0.364,880
365,0.365,881
366,0.366,871
367,0.367,879
368,0.368,879
369,0.369,869
370,0.37,867
371,0.371,871
372,0.372,868
373,0.373,878
374,0.374,873
375,0.375,875
376,0.376,889
377,0.377,887
378,0.378,883
379,0.379,886
380,0.38,890
381,0.381,897
382,0.382,881
383,0.383,885
384,0.384,893
385,0.385,887
386,0.386,882
387,0.387,873
388,0.388,875
389,0.389,832
390,0.39,875
391,0.391,881
392,0.392,906
393,0.393,880
394,0.394,881
395,0.395,879
396,0.396,875
397,0.397,883
398,0.398,883
399,0.399,889
400,0.4,897
401,0.401,885
402,0.402,884
403,0.403,880
404,0.404,883
405,0.405,866
406,0.406,881
407,0.407,878
408,0.408,874
409,0.409,879
410,0.41,877
411,0.411,875
412,0.412,880
413,0.413,885
414,0.414,883
415,0.415,881
416,0.416,848
417,0.417,895
418,0.418,883
419,0.419,880
420,0.42,882
421,0.421,880
422,0.422,880
423,0.423,893
424,0.424,893
425,0.425,881
426,0.426,879
427,0.427,881
428,0.428,880
429,0.429,880
430,0.43,872
431,0.431,880
432,0.432,879
433,0.433,893
434,0.434,889
435,0.435,890
436,0.436,874
437,0.437,880
438,0.438,875
439,0.439,871
440,0.44,895
441,0.441,896
442,0.442,881
443,0.443,882
444,0.444,880
445,0.445,880
446,0.446,880
447,0.447,879
448,0.448,879
449,0.449,874
450,0.45,877
451,0.451,865
452,0.452,870
453,0.453,880
454,0.454,876
455,0.455,880
456,0.456,881
457,0.457,891
458,0.458,887
459,0.459,886
460,0.46,912
461,0.461,891
462,0.462,880
463,0.463,893
464,0.464,897
465,0.465,883
466,0.466,880
467,0.467,877
468,0.468,882
469,0.469,897
470,0.47,887
471,0.471,880
472,0.472,868
473,0.473,869
474,0.474,859
475,0.475,861
476,0.476,861
477,0.477,869
478,0.478,882
479,0.479,886
480,0.48,885
481,0.481,880
482,0.482,921
483,0.483,896
484,0.484,892
485,0.485,879
486,0.486,889
487,0.487,877
488,0.488,880
489,0.489,886
490,0.49,880
491,0.491,873
492,0.492,880
493,0.493,923
494,0.494,887
495,0.495,879
496,0.496,876
497,0.497,880
498,0.498,878
499,0.499,880
500,0.5,887
501,0.501,886
502,0.502,884
503,0.503,879
504,0.504,879
505,0.505,902
506,0.506,891
507,0.507,886
508,0.508,886
509,0.509,882
510,0.51,890
511,0.511,880
512,0.512,858
513,0.513,863
514,0.514,848
515,0.515,870
516,0.516,855
517,0.517,879
518,0.518,859
519,0.519,887
520,0.52,891
521,0.521,899
522,0.522,895
523,0.523,881
524,0.524,846
525,0.525,882
526,0.526,880
527,0.527,880
528,0.528,874
529,0.529,868
530,0.53,882
531,0.531,872
532,0.532,873
533,0.533,880
534,0.534,887
535,0.535,880
536,0.536,881
537,0.537,896
538,0.538,884
539,0.539,886
540,0.54,885
541,0.541,896
542,0.542,882
543,0.543,896
544,0.544,880
545,0.545,848
546,0.546,882
547,0.547,821
548,0.548,871
549,0.549,876
550,0.55,877
551,0.551,880
552,0.552,881
553,0.553,879
554,0.554,878
555,0.555,882
556,0.556,880
557,0.557,886
558,0.558,883
559,0.559,891
560,0.56,882
561,0.561,882
562,0.562,894
563,0.563,881
564,0.564,880
565,0.565,867
566,0.566,880
567,0.567,889
568,0.568,880
569,0.569,881
570,0.57,882
571,0.571,871
572,0.572,870
573,0.573,880
574,0.574,877
575,0.575,880
576,0.576,874
577,0.577,896
578,0.578,893
579,0.579,885
580,0.58,877
581,0.581,891
582,0.582,893
583,0.583,891
584,0.584,881
585,0.585,874
586,0.586,880
587,0.587,881
588,0.588,872
589,0.589,881
590,0.59,877
591,0.591,883
592,0.592,877
593,0.593,880
594,0.594,879
595,0.595,899
596,0.596,879
597,0.597,879
598,0.598,875
599,0.599,880
600,0.6,880
601,0.601,892
602,0.602,881
603,0.603,880
604,0.604,883
605,0.605,885
606,0.606,891
607,0.607,967
608,0.608,879
609,0.609,870
610,0.61,874
611,0.611,877
612,0.612,871
613,0.613,880
614,0.614,881
615,0.615,879
616,0.616,885
617,0.617,880
618,0.618,883
619,0.619,886
620,0.62,884
621,0.621,891
622,0.622,880
623,0.623,799
624,0.624,878
625,0.625,885
626,0.626,883
627,0.627,883
628,0.628,880
629,0.629,896
630,0.63,871
631,0.631,867
632,0.632,879
633,0.633,880
634,0.634,882
635,0.635,849
636,0.636,880
637,0.637,883
638,0.638,880
639,0.639,883
640,0.64,895
641,0.641,896
642,0.642,880
643,0.643,877
644,0.644,879
645,0.645,882
646,0.646,883
647,0.647,884
648,0.648,883
649,0.649,863
650,0.65,869
651,0.651,855
652,0.652,897
653,0.653,880
654,0.654,877
655,0.655,875
656,0.656,880
657,0.657,882
658,0.658,905
659,0.659,889
660,0.66,895
661,0.661,880
662,0.662,885
663,0.663,896
664,0.664,883
665,0.665,889
666,0.666,880
667,0.667,867
668,0.668,873
669,0.669,873
670,0.67,882
671,0.671,880
672,0.672,882
673,0.673,870
674,0.674,882
675,0.675,873
676,0.676,880
677,0.677,880
678,0.678,892
679,0.679,883
680,0.68,885
681,0.681,887
682,0.682,890
683,0.683,891
684,0.684,880
685,0.685,870
686,0.686,875
687,0.687,874
688,0.688,885
689,0.689,879
690,0.69,879
691,0.691,874
692,0.692,880
693,0.693,880
694,0.694,883
695,0.695,881
696,0.696,865
697,0.697,897
698,0.698,895
699,0.699,869
700,0.7,893
701,0.701,894
702,0.702,896
703,0.703,899
704,0.704,889
705,0.705,887
706,0.706,891
707,0.707,880
708,0.708,874
709,0.709,880
710,0.71,877
711,0.711,871
712,0.712,874
713,0.713,880
714,0.714,881
715,0.715,867
716,0.716,873
717,0.717,880
718,0.718,889
719,0.719,896
720,0.72,848
721,0.721,883
722,0.722,894
723,0.723,880
724,0.724,881
725,0.725,887
726,0.726,880
727,0.727,869
728,0.728,886
729,0.729,801
730,0.73,874
731,0.731,879
732,0.732,858
733,0.733,862
734,0.734,880
735,0.735,884
736,0.736,883
737,0.737,880
738,0.738,885
739,0.739,880
740,0.74,883
741,0.741,880
742,0.742,893
743,0.743,887
744,0.744,890
745,0.745,878
746,0.746,875
747,0.747,880
748,0.748,864
749,0.749,880
750,0.75,821
751,0.751,868
752,0.752,875
753,0.753,877
754,0.754,878
755,0.755,881
756,0.756,880
757,0.757,880
758,0.758,886
759,0.759,889
760,0.76,887
761,0.761,881
762,0.762,891
763,0.763,895
764,0.764,857
765,0.765,880
766,0.766,880
767,0.767,877
768,0.768,877
769,0.769,871
770,0.77,879
771,0.771,871
772,0.772,879
773,0.773,873
774,0.774,880
775,0.775,877
776,0.776,875
777,0.777,885
778,0.778,891
779,0.779,890
780,0.78,881
781,0.781,891
782,0.782,891
783,0.783,890
784,0.784,891
785,0.785,889
786,0.786,877
787,0.787,874
788,0.788,873
789,0.789,875
790,0.79,872
791,0.791,878
792,0.792,867
793,0.793,874
794,0.794,881
795,0.795,877
796,0.796,877
797,0.797,880
798,0.798,873
799,0.799,889
800,0.8,892
801,0.801,889
802,0.802,886
803,0.803,890
804,0.804,891
805,0.805,884
806,0.806,959
807,0.807,874
808,0.808,881
809,0.809,880
810,0.81,884
811,0.811,880
812,0.812,871
813,0.813,859
814,0.814,864
815,0.815,873
816,0.816,880
817,0.817,883
818,0.818,883
819,0.819,881
820,0.82,883
821,0.821,883
822,0.822,885
823,0.823,883
824,0.824,880
825,0.825,880
826,0.826,885
827,0.827,876
828,0.828,870
829,0.829,867
830,0.83,881
831,0.831,880
832,0.832,871
833,0.833,879
834,0.834,880
835,0.835,882
836,0.836,885
837,0.837,855
838,0.838,880
839,0.839,883
840,0.84,889
841,0.841,883
842,0.842,889
843,0.843,883
844,0.844,874
845,0.845,875
846,0.846,883
847,0.847,879
848,0.848,881
849,0.849,882
850,0.85,883
851,0.851,866
852,0.852,869
853,0.853,869
854,0.854,870
855,0.855,869
856,0.856,878
857,0.857,877
858,0.858,889
859,0.859,883
860,0.86,880
861,0.861,903
862,0.862,882
863,0.863,883
864,0.864,874
865,0.865,891
866,0.866,892
867,0.867,883
868,0.868,880
869,0.869,885
870,0.87,870
871,0.871,918
872,0.872,868
873,0.873,872
874,0.874,880
875,0.875,878
876,0.876,883
877,0.877,889
878,0.878,882
879,0.879,875
880,0.88,869
881,0.881,885
882,0.882,901
883,0.883,891
884,0.884,895
885,0.885,886
886,0.886,891
887,0.887,881
888,0.888,879
889,0.889,870
890,0.89,865
891,0.891,862
892,0.892,871
893,0.893,880
894,0.894,888
895,0.895,887
896,0.896,880
897,0.897,890
898,0.898,886
899,0.899,885
900,0.9,883
901,0.901,886
902,0.902,895
903,0.903,892
904,0.904,883
905,0.905,879
906,0.906,879
907,0.907,889
908,0.908,875
909,0.909,880
910,0.91,877
911,0.911,882
912,0.912,879
913,0.913,870
914,0.914,882
915,0.915,890
916,0.916,876
917,0.917,877
918,0.918,885
919,0.919,891
920,0.92,879
921,0.921,887
922,0.922,895
923,0.923,890
924,0.924,891
925,0.925,881
926,0.926,894
927,0.927,885
928,0.928,871
929,0.929,866
930,0.93,875
931,0.931,870
932,0.932,874
933,0.933,867
934,0.934,866
935,0.935,879
936,0.936,885
937,0.937,883
938,0.938,892
939,0.939,890
940,0.94,881
941,0.941,881
942,0.942,880
943,0.943,880
944,0.944,882
945,0.945,853
946,0.946,881
947,0.947,861
948,0.948,870
949,0.949,879
950,0.95,883
951,0.951,880
952,0.952,875
953,0.953,877
954,0.954,880
955,0.955,874
956,0.956,877
957,0.957,880
958,0.958,887
959,0.959,884
960,0.96,880
961,0.961,883
962,0.962,890
963,0.963,882
964,0.964,880
965,0.965,880
966,0.966,844
967,0.967,879
968,0.968,880
969,0.969,871
970,0.97,880
971,0.971,880
972,0.972,880
973,0.973,873
974,0.974,870
975,0.975,880
976,0.976,875
977,0.977,880
978,0.978,880
979,0.979,885
980,0.98,889
981,0.981,885
982,0.982,891
983,0.983,885
984,0.984,881
985,0.985,886
986,0.986,894
987,0.987,875
988,0.988,883
989,0.989,864
990,0.99,885
991,0.991,875
992,0.992,878
993,0.993,880
994,0.994,867
995,0.995,868
996,0.996,869
997,0.997,879
998,0.998,880
999,0.999,901
1000,1.0,899
1001,1.001,890
1002,1.002,895
1003,1.003,898
1004,1.004,890
1005,1.005,885
1006,1.006,877
1007,1.007,877
1008,1.008,878
1009,1.009,877
1010,1.01,880
1011,1.011,875
1012,1.012,869
1013,1.013,874
1014,1.014,880
1015,1.015,880
1016,1.016,879
1017,1.017,877
1018,1.018,881
1019,1.019,883
1020,1.02,887
1021,1.021,879
1022,1.022,886
1023,1.023,890
1024,1.024,887
1025,1.025,881
1026,1.026,886
1027,1.027,883
1028,1.028,880
1029,1.029,880
1030,1.03,879
1031,1.031,867
1032,1.032,873
1033,1.033,877
1034,1.034,873
1035,1.035,891
1036,1.036,882
1037,1.037,880
1038,1.038,890
1039,1.039,888
1040,1.04,885
1041,1.041,883
1042,1.042,886
1043,1.043,884
1044,1.044,881
1045,1.045,867
1046,1.046,881
1047,1.047,880
1048,1.048,874
1049,1.049,874
1050,1.05,880
1051,1.051,875
1052,1.052,879
1053,1.053,869
1054,1.054,871
1055,1.055,875
1056,1.056,879
1057,1.057,885
1058,1.058,890
1059,1.059,891
1060,1.06,887
1061,1.061,890
1062,1.062,891
1063,1.063,886
1064,1.064,880
1065,1.065,886
1066,1.066,881
1067,1.067,885
1068,1.068,880
1069,1.069,872
1070,1.07,865
1071,1.071,871
1072,1.072,871
1073,1.073,873
1074,1.074,872
1075,1.075,880
1076,1.076,881
1077,1.077,881
1078,1.078,881
1079,1.079,887
1080,1.08,887
1081,1.081,884
1082,1.082,862
1083,1.083,881
1084,1.084,881
1085,1.085,880
1086,1.086,875
1087,1.087,878
1088,1.088,879
1089,1.089,875
1090,1.09,875
1091,1.091,870
1092,1.092,865
1093,1.093,873
1094,1.094,871
1095,1.095,867
1096,1.096,876
1097,1.097,879
1098,1.098,878
1099,1.099,887
1100,1.1,888
1101,1.101,888
1102,1.102,890
1103,1.103,895
1104,1.104,880
1105,1.105,879
1106,1.106,882
1107,1.107,882
1108,1.108,878
1109,1.109,877
1110,1.11,880
1111,1.111,889
1112,1.112,874
1113,1.113,875
1114,1.114,880
1115,1.115,880
1116,1.116,880
1117,1.117,877
1118,1.118,880
1119,1.119,885
1120,1.12,880
1121,1.121,881
1122,1.122,885
1123,1.123,889
1124,1.124,883
1125,1.125,884
1126,1.126,879
1127,1.127,879
1128,1.128,877
1129,1.129,877
1130,1.13,867
1131,1.131,878
1132,1.132,874
1133,1.133,822
1134,1.134,877
1135,1.135,878
1136,1.136,869
1137,1.137,878
1138,1.138,877
1139,1.139,895
1140,1.14,887
1141,1.141,886
1142,1.142,887
1143,1.143,897
1144,1.144,752
1145,1.145,887
1146,1.146,855
1147,1.147,882
1148,1.148,887
1149,1.149,869
1150,1.15,877
1151,1.151,875
1152,1.152,877
1153,1.153,873
1154,1.154,878
1155,1.155,887
1156,1.156,889
1157,1.157,878
1158,1.158,880
1159,1.159,880
1160,1.16,879
1161,1.161,879
1162,1.162,886
1163,1.163,879
1164,1.164,881
1165,1.165,881
1166,1.166,880
1167,1.167,883
1168,1.168,880
1169,1.169,880
1170,1.17,880
1171,1.171,879
1172,1.172,873
1173,1.173,1105
1174,1.174,873
1175,1.175,868
1176,1.176,869
1177,1.177,912
1178,1.178,875
1179,1.179,887
1180,1.18,897
1181,1.181,885
1182,1.182,885
1183,1.183,893
1184,1.184,896
1185,1.185,878
1186,1.186,880
1187,1.187,887
1188,1.188,875
1189,1.189,876
1190,1.19,880
1191,1.191,891
1192,1.192,873
1193,1.193,880
1194,1.194,877
1195,1.195,886
1196,1.196,880
1197,1.197,880
1198,1.198,880
1199,1.199,889
1200,1.2,880
1201,1.201,882
1202,1.202,881
1203,1.203,896
1204,1.204,883
1205,1.205,881
1206,1.206,882
1207,1.207,878
1208,1.208,878
1209,1.209,885
1210,1.21,880
1211,1.211,882
1212,1.212,875
1213,1.213,875
1214,1.214,873
1215,1.215,879
1216,1.216,880
1217,1.217,885
1218,1.218,880
1219,1.219,886
1220,1.22,885
1221,1.221,882
1222,1.222,880
1223,1.223,885
1224,1.224,881
1225,1.225,877
1226,1.226,880
1227,1.227,877
1228,1.228,881
1229,1.229,879
1230,1.23,880
1231,1.231,878
1232,1.232,879
1233,1.233,877
1234,1.234,876
1235,1.235,879
1236,1.236,871
1237,1.237,877
1238,1.238,880
1239,1.239,881
1240,1.24,891
1241,1.241,880
1242,1.242,885
1243,1.243,890
1244,1.244,880
1245,1.245,880
1246,1.246,880
1247,1.247,885
1248,1.248,880
1249,1.249,874
1250,1.25,865
1251,1.251,925
1252,1.252,882
1253,1.253,867
1254,1.254,880
1255,1.255,878
1256,1.256,880
1257,1.257,871
1258,1.258,880
1259,1.259,891
1260,1.26,889
1261,1.261,885
1262,1.262,880
1263,1.263,885
1264,1.264,887
1265,1.265,881
1266,1.266,883
1267,1.267,885
1268,1.268,881
1269,1.269,869
1270,1.27,875
1271,1.271,880
1272,1.272,880
1273,1.273,870
1274,1.274,880
1275,1.275,884
1276,1.276,880
1277,1.277,878
1278,1.278,877
1279,1.279,885
1280,1.28,889
1281,1.281,880
1282,1.282,880
1283,1.283,891
1284,1.284,880
1285,1.285,880
1286,1.286,886
1287,1.287,877
1288,1.288,881
1289,1.289,869
1290,1.29,875
1291,1.291,861
1292,1.292,864
1293,1.293,879
1294,1.294,867
1295,1.295,878
1296,1.296,878
1297,1.297,854
1298,1.298,850
1299,1.299,878
1300,1.3,885
1301,1.301,890
1302,1.302,890
1303,1.303,874
1304,1.304,891
1305,1.305,881
1306,1.306,880
1307,1.307,883
1308,1.308,874
1309,1.309,878
1310,1.31,879
1311,1.311,880
1312,1.312,877
1313,1.313,862
1314,1.314,875
1315,1.315,885
1316,1.316,883
1317,1.317,884
1318,1.318,880
1319,1.319,890
1320,1.32,886
1321,1.321,889
1322,1.322,882
1323,1.323,881
1324,1.324,887
1325,1.325,886
1326,1.326,889
1327,1.327,879
1328,1.328,880
1329,1.329,883
1330,1.33,880
1331,1.331,883
1332,1.332,862
1333,1.333,877
1334,1.334,865
1335,1.335,880
1336,1.336,893
1337,1.337,880
1338,1.338,878
1339,1.339,891
1340,1.34,881
1341,1.341,882
1342,1.342,887
1343,1.343,887
1344,1.344,881
1345,1.345,894
1346,1.346,890
1347,1.347,881
1348,1.348,881
1349,1.349,880
1350,1.35,882
1351,1.351,863
1352,1.352,870
1353,1.353,872
1354,1.354,885
1355,1.355,880
1356,1.356,881
1357,1.357,881
1358,1.358,886
1359,1.359,891
1360,1.36,880
1361,1.361,885
1362,1.362,886
1363,1.363,851
1364,1.364,888
1365,1.365,877
1366,1.366,879
1367,1.367,879
1368,1.368,895
1369,1.369,878
1370,1.37,879
1371,1.371,880
1372,1.372,881
1373,1.373,874
1374,1.374,870
1375,1.375,880
1376,1.376,869
1377,1.377,880
1378,1.378,883
1379,1.379,882
1380,1.38,890
1381,1.381,893
1382,1.382,887
1383,1.383,899
1384,1.384,872
1385,1.385,890
1386,1.386,891
1387,1.387,879
1388,1.388,869
1389,1.389,874
1390,1.39,873
1391,1.391,878
1392,1.392,880
1393,1.393,864
1394,1.394,877
1395,1.395,832
1396,1.396,880
1397,1.397,878
1398,1.398,880
1399,1.399,887
1400,1.4,891
1401,1.401,880
1402,1.402,889
1403,1.403,886
1404,1.404,889
1405,1.405,880
1406,1.406,881
1407,1.407,882
1408,1.408,865
1409,1.409,879
1410,1.41,877
1411,1.411,874
1412,1.412,879
1413,1.413,878
1414,1.414,880
1415,1.415,870
1416,1.416,867
1417,1.417,876
1418,1.418,880
1419,1.419,880
1420,1.42,890
1421,1.421,898
1422,1.422,885
1423,1.423,889
1424,1.424,882
1425,1.425,896
1426,1.426,871
1427,1.427,881
1428,1.428,882
1429,1.429,875
1430,1.43,861
1431,1.431,880
1432,1.432,863
1433,1.433,879
1434,1.434,861
1435,1.435,880
1436,1.436,881
1437,1.437,880
1438,1.438,905
1439,1.439,885
1440,1.44,890
1441,1.441,885
1442,1.442,885
1443,1.443,887
1444,1.444,895
1445,1.445,886
1446,1.446,884
1447,1.447,880
1448,1.448,881
1449,1.449,878
1450,1.45,869
1451,1.451,873
1452,1.452,877
1453,1.453,891
1454,1.454,871
1455,1.455,875
1456,1.456,887
1457,1.457,876
1458,1.458,879
1459,1.459,887
1460,1.46,880
1461,1.461,884
1462,1.462,883
1463,1.463,895
1464,1.464,899
1465,1.465,855
1466,1.466,881
1467,1.467,885
1468,1.468,880
1469,1.469,874
1470,1.47,876
1471,1.471,875
1472,1.472,801
1473,1.473,877
1474,1.474,871
1475,1.475,852
1476,1.476,903
1477,1.477,938
1478,1.478,868
1479,1.479,905
1480,1.48,884
1481,1.481,880
1482,1.482,880
1483,1.483,889
1484,1.484,883
1485,1.485,883
1486,1.486,895
1487,1.487,912
1488,1.488,880
1489,1.489,880
1490,1.49,874
1491,1.491,880
1492,1.492,878
1493,1.493,877
1494,1.494,879
1495,1.495,874
1496,1.496,880
1497,1.497,876
1498,1.498,880
1499,1.499,817
1500,1.5,893
1501,1.501,879
1502,1.502,886
1503,1.503,931
1504,1.504,880
1505,1.505,880
1506,1.506,880
1507,1.507,880
1508,1.508,880
1509,1.509,887
1510,1.51,877
1511,1.511,880
1512,1.512,885
1513,1.513,869
1514,1.514,875
1515,1.515,866
1516,1.516,879
1517,1.517,879
1518,1.518,883
1519,1.519,870
1520,1.52,862
1521,1.521,960
1522,1.522,879
1523,1.523,894
1524,1.524,835
1525,1.525,890
1526,1.526,987
1527,1.527,881
1528,1.528,880
1529,1.529,880
1530,1.53,879
1531,1.531,875
1532,1.532,876
1533,1.533,880
1534,1.534,879
1535,1.535,874
1536,1.536,887
1537,1.537,882
1538,1.538,867
1539,1.539,880
1540,1.54,875
1541,1.541,885
1542,1.542,886
1543,1.543,883
1544,1.544,882
1545,1.545,880
1546,1.546,893
1547,1.547,889
1548,1.548,881
1549,1.549,885
1550,1.55,878
1551,1.551,874
1552,1.552,875
1553,1.553,880
1554,1.554,864
1555,1.555,882
1556,1.556,885
1557,1.557,881
1558,1.558,876
1559,1.559,874
1560,1.56,895
1561,1.561,886
1562,1.562,880
1563,1.563,884
1564,1.564,886
1565,1.565,891
1566,1.566,882
1567,1.567,882
1568,1.568,873
1569,1.569,869
1570,1.57,871
1571,1.571,880
1572,1.572,967
1573,1.573,870
1574,1.574,868
1575,1.575,880
1576,1.576,880
1577,1.577,880
1578,1.578,882
1579,1.579,883
1580,1.58,887
1581,1.581,886
1582,1.582,880
1583,1.583,886
1584,1.584,883
1585,1.585,885
1586,1.586,886
1587,1.587,883
1588,1.588,873
1589,1.589,889
1590,1.59,879
1591,1.591,874
1592,1.592,878
1593,1.593,870
1594,1.594,870
1595,1.595,865
1596,1.596,960
1597,1.597,874
1598,1.598,879
1599,1.599,880
1600,1.6,886
1601,1.601,881
1602,1.602,878
1603,1.603,887
1604,1.604,897
1605,1.605,886
1606,1.606,879
1607,1.607,885
1608,1.608,880
1609,1.609,880
1610,1.61,875
1611,1.611,871
1612,1.612,881
1613,1.613,875
1614,1.614,854
1615,1.615,869
1616,1.616,881
1617,1.617,880
1618,1.618,880
1619,1.619,880
1620,1.62,875
1621,1.621,880
1622,1.622,880
1623,1.623,891
1624,1.624,883
1625,1.625,890
1626,1.626,890
1627,1.627,880
1628,1.628,885
1629,1.629,879
1630,1.63,878
1631,1.631,879
1632,1.632,874
1633,1.633,874
1634,1.634,875
1635,1.635,878
1636,1.636,873
1637,1.637,890
1638,1.638,881
1639,1.639,815
1640,1.64,851
1641,1.641,975
1642,1.642,891
1643,1.643,880
1644,1.644,891
1645,1.645,884
1646,1.646,878
1647,1.647,882
1648,1.648,889
1649,1.649,894
1650,1.65,893
1651,1.651,885
1652,1.652,874
1653,1.653,866
1654,1.654,869
1655,1.655,875
1656,1.656,879
1657,1.657,880
1658,1.658,879
1659,1.659,880
1660,1.66,848
1661,1.661,883
1662,1.662,896
1663,1.663,896
1664,1.664,896
1665,1.665,885
1666,1.666,890
1667,1.667,887
1668,1.668,885
1669,1.669,880
1670,1.67,1055
1671,1.671,869
1672,1.672,875
1673,1.673,876
1674,1.674,868
1675,1.675,870
1676,1.676,873
1677,1.677,875
1678,1.678,880
1679,1.679,881
1680,1.68,881
1681,1.681,887
1682,1.682,884
1683,1.683,892
1684,1.684,889
1685,1.685,885
1686,1.686,885
1687,1.687,881
1688,1.688,884
1689,1.689,886
1690,1.69,879
1691,1.691,877
1692,1.692,875
1693,1.693,880
1694,1.694,854
1695,1.695,878
1696,1.696,873
1697,1.697,880
1698,1.698,871
1699,1.699,881
1700,1.7,880
1701,1.701,880
1702,1.702,892
1703,1.703,881
1704,1.704,889
1705,1.705,826
1706,1.706,880
1707,1.707,880
1708,1.708,885
1709,1.709,881
1710,1.71,879
1711,1.711,870
1712,1.712,880
1713,1.713,912
1714,1.714,848
1715,1.715,880
1716,1.716,880
1717,1.717,880
1718,1.718,878
1719,1.719,880
1720,1.72,885
1721,1.721,889
1722,1.722,890
1723,1.723,882
1724,1.724,899
1725,1.725,877
1726,1.726,878
1727,1.727,880
1728,1.728,883
1729,1.729,874
1730,1.73,866
1731,1.731,892
1732,1.732,871
1733,1.733,878
1734,1.734,867
1735,1.735,878
1736,1.736,875
1737,1.737,876
1738,1.738,874
1739,1.739,885
1740,1.74,891
1741,1.741,886
1742,1.742,880
1743,1.743,886
1744,1.744,890
1745,1.745,883
1746,1.746,880
1747,1.747,880
1748,1.748,883
1749,1.749,875
1750,1.75,871
1751,1.751,870
1752,1.752,869
1753,1.753,880
1754,1.754,880
1755,1.755,879
1756,1.756,877
1757,1.757,876
1758,1.758,875
1759,1.759,842
1760,1.76,870
1761,1.761,885
1762,1.762,885
1763,1.763,883
1764,1.764,895
1765,1.765,882
1766,1.766,881
1767,1.767,881
1768,1.768,880
1769,1.769,880
1770,1.77,869
1771,1.771,873
1772,1.772,870
1773,1.773,882
1774,1.774,880
1775,1.775,890
1776,1.776,869
1777,1.777,880
1778,1.778,892
1779,1.779,879
1780,1.78,880
1781,1.781,880
1782,1.782,905
1783,1.783,882
1784,1.784,884
1785,1.785,894
1786,1.786,886
1787,1.787,880
1788,1.788,887
1789,1.789,882
1790,1.79,874
1791,1.791,874
1792,1.792,863
1793,1.793,871
1794,1.794,867
1795,1.795,848
1796,1.796,887
1797,1.797,880
1798,1.798,880
1799,1.799,884
1800,1.8,880
1801,1.801,912
1802,1.802,882
1803,1.803,884
1804,1.804,880
1805,1.805,886
1806,1.806,895
1807,1.807,880
1808,1.808,880
1809,1.809,879
1810,1.81,877
1811,1.811,871
1812,1.812,869
1813,1.813,875
1814,1.814,870
1815,1.815,869
1816,1.816,880
1817,1.817,876
1818,1.818,877
1819,1.819,879
1820,1.82,895
1821,1.821,880
1822,1.822,881
1823,1.823,889
1824,1.824,883
1825,1.825,890
1826,1.826,893
1827,1.827,880
1828,1.828,880
1829,1.829,885
1830,1.83,880
1831,1.831,877
1832,1.832,880
1833,1.833,873
1834,1.834,871
1835,1.835,874
1836,1.836,880
1837,1.837,871
1838,1.838,874
1839,1.839,881
1840,1.84,892
1841,1.841,901
1842,1.842,894
1843,1.843,884
1844,1.844,889
1845,1.845,879
1846,1.846,887
1847,1.847,875
1848,1.848,889
1849,1.849,884
1850,1.85,870
1851,1.851,867
1852,1.852,879
1853,1.853,896
1854,1.854,874
1855,1.855,867
1856,1.856,880
1857,1.857,883
1858,1.858,896
1859,1.859,880
1860,1.86,893
1861,1.861,888
1862,1.862,887
1863,1.863,887
1864,1.864,896
1865,1.865,897
1866,1.866,880
1867,1.867,885
1868,1.868,877
1869,1.869,879
1870,1.87,880
1871,1.871,871
1872,1.872,880
1873,1.873,878
1874,1.874,870
1875,1.875,882
1876,1.876,886
1877,1.877,867
1878,1.878,881
1879,1.879,881
1880,1.88,886
1881,1.881,889
1882,1.882,887
1883,1.883,878
1884,1.884,897
1885,1.885,885
1886,1.886,878
1887,1.887,887
1888,1.888,885
1889,1.889,880
1890,1.89,881
1891,1.891,871
1892,1.892,877
1893,1.893,881
1894,1.894,874
1895,1.895,875
1896,1.896,874
1897,1.897,885
1898,1.898,880
1899,1.899,883
1900,1.9,881
1901,1.901,883
1902,1.902,885
1903,1.903,880
1904,1.904,881
1905,1.905,886
1906,1.906,884
1907,1.907,878
1908,1.908,893
1909,1.909,892
1910,1.91,880
1911,1.911,875
1912,1.912,880
1913,1.913,874
1914,1.914,869
1915,1.915,875
1916,1.916,877
1917,1.917,880
1918,1.918,880
1919,1.919,884
1920,1.92,881
1921,1.921,881
1922,1.922,895
1923,1.923,887
1924,1.924,893
1925,1.925,894
1926,1.926,883
1927,1.927,878
1928,1.928,880
1929,1.929,878
1930,1.93,880
1931,1.931,870
1932,1.932,867
1933,1.933,883
1934,1.934,874
1935,1.935,883
1936,1.936,891
1937,1.937,876
1938,1.938,874
1939,1.939,885
1940,1.94,878
1941,1.941,893
1942,1.942,880
1943,1.943,879
1944,1.944,884
1945,1.945,881
1946,1.946,877
1947,1.947,879
1948,1.948,894
1949,1.949,890
1950,1.95,874
1951,1.951,879
1952,1.952,876
1953,1.953,875
1954,1.954,863
1955,1.955,870
1956,1.956,880
1957,1.957,967
1958,1.958,877
1959,1.959,880
1960,1.96,893
1961,1.961,893
1962,1.962,889
1963,1.963,882
1964,1.964,894
1965,1.965,890
1966,1.966,880
1967,1.967,884
1968,1.968,875
1969,1.969,887
1970,1.97,874
1971,1.971,871
1972,1.972,870
1973,1.973,879
1974,1.974,875
1975,1.975,870
1976,1.976,871
1977,1.977,882
1978,1.978,880
1979,1.979,883
1980,1.98,807
1981,1.981,896
1982,1.982,885
1983,1.983,887
1984,1.984,892
1985,1.985,880
1986,1.986,889
1987,1.987,887
1988,1.988,883
1989,1.989,880
1990,1.99,886
1991,1.991,886
1992,1.992,880
1993,1.993,874
1994,1.994,880
1995,1.995,860
1996,1.996,871
1997,1.997,871
1998,1.998,877
1999,1.999,880
2000,2.0,889
2001,2.001,886
2002,2.002,892
2003,2.003,889
2004,2.004,887
2005,2.005,896
2006,2.006,883
2007,2.007,883
2008,2.008,890
2009,2.009,883
2010,2.01,880
2011,2.011,871
2012,2.012,871
2013,2.013,879
2014,2.014,869
2015,2.015,871
2016,2.016,881
2017,2.017,877
2018,2.018,878
2019,2.019,880
2020,2.02,880
2021,2.021,885
2022,2.022,877
2023,2.023,887
2024,2.024,896
2025,2.025,886
2026,2.026,886
2027,2.027,880
2028,2.028,880
2029,2.029,881
2030,2.03,878
2031,2.031,880
2032,2.032,871
2033,2.033,870
2034,2.034,863
2035,2.035,880
2036,2.036,871
2037,2.037,903
2038,2.038,880
2039,2.039,881
2040,2.04,939
2041,2.041,890
2042,2.042,891
2043,2.043,882
2044,2.044,889
2045,2.045,882
2046,2.046,886
2047,2.047,880
2048,2.048,889
2049,2.049,880
2050,2.05,881
2051,2.051,876
2052,2.052,877
2053,2.053,877
2054,2.054,880
2055,2.055,877
2056,2.056,875
2057,2.057,880
2058,2.058,877
2059,2.059,833
2060,2.06,881
2061,2.061,886
2062,2.062,882
2063,2.063,895
2064,2.064,894
2065,2.065,901
2066,2.066,880
2067,2.067,884
2068,2.068,882
2069,2.069,881
2070,2.07,886
2071,2.071,785
2072,2.072,873
2073,2.073,880
2074,2.074,871
2075,2.075,875
2076,2.076,879
2077,2.077,880
2078,2.078,883
2079,2.079,879
2080,2.08,884
2081,2.081,897
2082,2.082,880
2083,2.083,871
2084,2.084,882
2085,2.085,883
2086,2.086,894
2087,2.087,885
2088,2.088,890
2089,2.089,896
2090,2.09,877
2091,2.091,873
2092,2.092,885
2093,2.093,890
2094,2.094,872
2095,2.095,871
2096,2.096,878
2097,2.097,880
2098,2.098,878
2099,2.099,885
2100,2.1,883
2101,2.101,856
2102,2.102,894
2103,2.103,882
2104,2.104,876
2105,2.105,896
2106,2.106,885
2107,2.107,883
2108,2.108,883
2109,2.109,885
2110,2.11,881
2111,2.111,874
2112,2.112,876
2113,2.113,875
2114,2.114,878
2115,2.115,874
2116,2.116,880
2117,2.117,879
2118,2.118,895
2119,2.119,880
2120,2.12,880
2121,2.121,885
2122,2.122,895
2123,2.123,887
2124,2.124,893
2125,2.125,886
2126,2.126,891
2127,2.127,881
2128,2.128,881
2129,2.129,881
2130,2.13,880
2131,2.131,871
2132,2.132,881
2133,2.133,887
2134,2.134,867
2135,2.135,877
2136,2.136,874
2137,2.137,869
2138,2.138,877
2139,2.139,877
2140,2.14,880
2141,2.141,880
2142,2.142,882
2143,2.143,880
2144,2.144,883
2145,2.145,883
2146,2.146,886
2147,2.147,893
2148,2.148,867
2149,2.149,883
2150,2.15,847
2151,2.151,861
2152,2.152,858
2153,2.153,877
2154,2.154,880
2155,2.155,874
2156,2.156,879
2157,2.157,878
2158,2.158,874
2159,2.159,877
2160,2.16,880
2161,2.161,882
2162,2.162,887
2163,2.163,881
2164,2.164,884
2165,2.165,886
2166,2.166,880
2167,2.167,883
2168,2.168,891
2169,2.169,887
2170,2.17,880
2171,2.171,880
2172,2.172,869
2173,2.173,880
2174,2.174,867
2175,2.175,865
2176,2.176,878
2177,2.177,879
2178,2.178,868
2179,2.179,879
2180,2.18,880
2181,2.181,891
2182,2.182,885
2183,2.183,884
2184,2.184,880
2185,2.185,890
2186,2.186,883
2187,2.187,882
2188,2.188,881
2189,2.189,880
2190,2.19,880
2191,2.191,866
2192,2.192,880
2193,2.193,880
2194,2.194,871
2195,2.195,871
2196,2.196,878
2197,2.197,880
2198,2.198,880
2199,2.199,880
2200,2.2,881
2201,2.201,894
2202,2.202,926
2203,2.203,881
2204,2.204,880
2205,2.205,895
2206,2.206,892
2207,2.207,880
2208,2.208,877
2209,2.209,880
2210,2.21,880
2211,2.211,875
2212,2.212,865
2213,2.213,878
2214,2.214,875
2215,2.215,867
2216,2.216,880
2217,2.217,878
2218,2.218,877
2219,2.219,928
2220,2.22,876
2221,2.221,889
2222,2.222,880
2223,2.223,884
2224,2.224,891
2225,2.225,893
2226,2.226,882
2227,2.227,874
2228,2.228,879
2229,2.229,880
2230,2.23,878
2231,2.231,873
2232,2.232,879
2233,2.233,875
2234,2.234,869
2235,2.235,873
2236,2.236,865
2237,2.237,883
2238,2.238,867
2239,2.239,875
2240,2.24,872
2241,2.241,880
2242,2.242,837
2243,2.243,880
2244,2.244,883
2245,2.245,890
2246,2.246,887
2247,2.247,881
2248,2.248,882
2249,2.249,885
2250,2.25,876
2251,2.251,871
2252,2.252,877
2253,2.253,879
2254,2.254,875
2255,2.255,878
2256,2.256,870
2257,2.257,881
2258,2.258,881
2259,2.259,876
2260,2.26,880
2261,2.261,875
2262,2.262,891
2263,2.263,875
2264,2.264,880
2265,2.265,884
2266,2.266,881
2267,2.267,891
2268,2.268,882
2269,2.269,881
2270,2.27,880
2271,2.271,873
2272,2.272,858
2273,2.273,882
2274,2.274,869
2275,2.275,867
2276,2.276,866
2277,2.277,875
2278,2.278,879
2279,2.279,875
2280,2.28,883
2281,2.281,879
2282,2.282,894
2283,2.283,887
2284,2.284,894
2285,2.285,895
2286,2.286,880
2287,2.287,887
2288,2.288,880
2289,2.289,882
2290,2.29,910
2291,2.291,880
2292,2.292,871
2293,2.293,861
2294,2.294,865
2295,2.295,876
2296,2.296,868
2297,2.297,877
2298,2.298,880
2299,2.299,873
2300,2.3,877
2301,2.301,885
2302,2.302,884
2303,2.303,880
2304,2.304,884
2305,2.305,890
2306,2.306,887
2307,2.307,881
2308,2.308,880
2309,2.309,875
2310,2.31,875
2311,2.311,882
2312,2.312,882
2313,2.313,870
2314,2.314,874
2315,2.315,896
2316,2.316,879
2317,2.317,880
2318,2.318,868
2319,2.319,890
2320,2.32,891
2321,2.321,885
2322,2.322,874
2323,2.323,880
2324,2.324,894
2325,2.325,891
2326,2.326,882
2327,2.327,897
2328,2.328,885
2329,2.329,882
2330,2.33,885
2331,2.331,893
2332,2.332,883
2333,2.333,879
2334,2.334,880
2335,2.335,882
2336,2.336,878
2337,2.337,883
2338,2.338,897
2339,2.339,881
2340,2.34,877
2341,2.341,887
2342,2.342,886
2343,2.343,882
2344,2.344,920
2345,2.345,883
2346,2.346,886
2347,2.347,885
2348,2.348,883
2349,2.349,891
2350,2.35,883
2351,2.351,880
2352,2.352,877
2353,2.353,882
2354,2.354,879
2355,2.355,875
2356,2.356,883
2357,2.357,877
2358,2.358,882
2359,2.359,880
2360,2.36,883
2361,2.361,882
2362,2.362,892
2363,2.363,813
2364,2.364,879
2365,2.365,880
2366,2.366,867
2367,2.367,879
2368,2.368,887
2369,2.369,880
2370,2.37,878
2371,2.371,869
2372,2.372,871
2373,2.373,875
2374,2.374,878
2375,2.375,870
2376,2.376,880
2377,2.377,874
2378,2.378,875
2379,2.379,876
2380,2.38,884
2381,2.381,881
2382,2.382,880
2383,2.383,885
2384,2.384,883
2385,2.385,892
2386,2.386,880
2387,2.387,890
2388,2.388,880
2389,2.389,881
2390,2.39,880
2391,2.391,877
2392,2.392,878
2393,2.393,832
2394,2.394,874
2395,2.395,868
2396,2.396,871
2397,2.397,876
2398,2.398,877
2399,2.399,871
2400,2.4,883
2401,2.401,882
2402,2.402,889
2403,2.403,883
2404,2.404,883
2405,2.405,885
2406,2.406,881
2407,2.407,879
2408,2.408,889
2409,2.409,870
2410,2.41,890
2411,2.411,867
2412,2.412,882
2413,2.413,881
2414,2.414,879
2415,2.415,878
2416,2.416,895
2417,2.417,880
2418,2.418,880
2419,2.419,880
2420,2.42,875
2421,2.421,885
2422,2.422,882
2423,2.423,882
2424,2.424,880
2425,2.425,888
2426,2.426,882
2427,2.427,883
2428,2.428,882
2429,2.429,880
2430,2.43,880
2431,2.431,877
2432,2.432,877
2433,2.433,879
2434,2.434,878
2435,2.435,874
2436,2.436,880
2437,2.437,865
2438,2.438,886
2439,2.439,883
2440,2.44,895
2441,2.441,880
2442,2.442,903
2443,2.443,897
2444,2.444,885
2445,2.445,871
2446,2.446,879
2447,2.447,869
2448,2.448,867
2449,2.449,867
2450,2.45,855
2451,2.451,861
2452,2.452,855
2453,2.453,863
2454,2.454,893
2455,2.455,925
2456,2.456,960
2457,2.457,957
2458,2.458,955
2459,2.459,917
2460,2.46,855
2461,2.461,841
2462,2.462,835
2463,2.463,832
2464,2.464,882
2465,2.465,922
2466,2.466,914
2467,2.467,881
2468,2.468,864
2469,2.469,811
2470,2.47,767
2471,2.471,806
2472,2.472,821
2473,2.473,790
2474,2.474,824
2475,2.475,910
2476,2.476,964
2477,2.477,989
2478,2.478,973
2479,2.479,906
2480,2.48,835
2481,2.481,768
2482,2.482,750
2483,2.483,814
2484,2.484,881
2485,2.485,946
2486,2.486,976
2487,2.487,957
2488,2.488,928
2489,2.489,937
2490,2.49,879
2491,2.491,846
2492,2.492,851
2493,2.493,855
2494,2.494,833
2495,2.495,767
2496,2.496,782
2497,2.497,850
2498,2.498,910
2499,2.499,946
2500,2.5,957
2501,2.501,951
2502,2.502,915
2503,2.503,896
2504,2.504,911
2505,2.505,880
2506,2.506,847
2507,2.507,839
2508,2.508,833
2509,2.509,832
2510,2.51,784
2511,2.511,707
2512,2.512,723
2513,2.513,784
2514,2.514,816
2515,2.515,822
2516,2.516,891
2517,2.517,1008
2518,2.518,1014
2519,2.519,965
2520,2.52,1018
2521,2.521,1071
2522,2.522,1008
2523,2.523,934
2524,2.524,881
2525,2.525,892
2526,2.526,838
2527,2.527,861
2528,2.528,938
2529,2.529,974
2530,2.53,941
2531,2.531,889
2532,2.532,928
2533,2.533,976
2534,2.534,941
2535,2.535,898
2536,2.536,931
2537,2.537,901
2538,2.538,798
2539,2.539,733
2540,2.54,660
2541,2.541,647
2542,2.542,561
2543,2.543,694
2544,2.544,926
2545,2.545,1010
2546,2.546,1051
2547,2.547,1043
2548,2.548,1075
2549,2.549,1099
2550,2.55,1050
2551,2.551,960
2552,2.552,959
2553,2.553,977
2554,2.554,862
2555,2.555,814
2556,2.556,870
2557,2.557,791
2558,2.558,730
2559,2.559,836
2560,2.56,894
2561,2.561,756
2562,2.562,726
2563,2.563,827
2564,2.564,894
2565,2.565,854
2566,2.566,878
2567,2.567,993
2568,2.568,1047
2569,2.569,997
2570,2.57,1035
2571,2.571,1012
2572,2.572,880
2573,2.573,769
2574,2.574,762
2575,2.575,621
2576,2.576,614
2577,2.577,848
2578,2.578,989
2579,2.579,923
2580,2.58,1002
2581,2.581,994
2582,2.582,903
2583,2.583,898
2584,2.584,929
2585,2.585,906
2586,2.586,807
2587,2.587,817
2588,2.588,919
2589,2.589,1018
2590,2.59,959
2591,2.591,986
2592,2.592,1104
2593,2.593,1151
2594,2.594,1171
2595,2.595,1073
2596,2.596,701
2597,2.597,429
2598,2.598,671
2599,2.599,842
2600,2.6,791
2601,2.601,775
2602,2.602,775
2603,2.603,767
2604,2.604,775
2605,2.605,766
2606,2.606,848
2607,2.607,912
2608,2.608,899
2609,2.609,899
2610,2.61,930
2611,2.611,967
2612,2.612,971
2613,2.613,998
2614,2.614,999
2615,2.615,931
2616,2.616,854
2617,2.617,827
2618,2.618,823
2619,2.619,826
2620,2.62,990
2621,2.621,1075
2622,2.622,1014
2623,2.623,974
2624,2.624,784
2625,2.625,804
2626,2.626,913
2627,2.627,865
2628,2.628,837
2629,2.629,924
2630,2.63,1021
2631,2.631,956
2632,2.632,729
2633,2.633,695
2634,2.634,909
2635,2.635,946
2636,2.636,819
2637,2.637,848
2638,2.638,746
2639,2.639,823
2640,2.64,987
2641,2.641,951
2642,2.642,902
2643,2.643,965
2644,2.644,977
2645,2.645,911
2646,2.646,879
2647,2.647,815
2648,2.648,857
2649,2.649,820
2650,2.65,752
2651,2.651,759
2652,2.652,848
2653,2.653,977
2654,2.654,921
2655,2.655,887
2656,2.656,943
2657,2.657,1002
2658,2.658,962
2659,2.659,929
2660,2.66,925
2661,2.661,859
2662,2.662,806
2663,2.663,785
2664,2.664,773
2665,2.665,739
2666,2.666,743
2667,2.667,909
2668,2.668,985
2669,2.669,1037
2670,2.67,944
2671,2.671,925
2672,2.672,903
2673,2.673,986
2674,2.674,959
2675,2.675,884
2676,2.676,925
2677,2.677,838
2678,2.678,753
2679,2.679,784
2680,2.68,719
2681,2.681,752
2682,2.682,845
2683,2.683,847
2684,2.684,915
2685,2.685,975
2686,2.686,1147
2687,2.687,1093
2688,2.688,885
2689,2.689,784
2690,2.69,787
2691,2.691,853
2692,2.692,863
2693,2.693,883
2694,2.694,949
2695,2.695,902
2696,2.696,837
2697,2.697,868
2698,2.698,902
2699,2.699,917
2700,2.7,848
2701,2.701,808
2702,2.702,773
2703,2.703,854
2704,2.704,896
2705,2.705,960
2706,2.706,960
2707,2.707,898
2708,2.708,813
2709,2.709,835
2710,2.71,902
2711,2.711,944
2712,2.712,922
2713,2.713,912
2714,2.714,1041
2715,2.715,993
2716,2.716,896
2717,2.717,776
2718,2.718,708
2719,2.719,705
2720,2.72,739
2721,2.721,825
2722,2.722,891
2723,2.723,894
2724,2.724,1088
2725,2.725,1063
2726,2.726,945
2727,2.727,919
2728,2.728,896
2729,2.729,931
2730,2.73,903
2731,2.731,810
2732,2.732,752
2733,2.733,797
2734,2.734,1017
2735,2.735,1014
2736,2.736,802
2737,2.737,750
2738,2.738,816
2739,2.739,944
2740,2.74,1007
2741,2.741,1066
2742,2.742,983
2743,2.743,868
2744,2.744,842
2745,2.745,796
2746,2.746,759
2747,2.747,715
2748,2.748,816
2749,2.749,885
2750,2.75,851
2751,2.751,821
2752,2.752,912
2753,2.753,1104
2754,2.754,1102
2755,2.755,896
2756,2.756,901
2757,2.757,947
2758,2.758,926
2759,2.759,787
2760,2.76,624
2761,2.761,700
2762,2.762,912
2763,2.763,1035
2764,2.764,1046
2765,2.765,919
2766,2.766,743
2767,2.767,656
2768,2.768,800
2769,2.769,1020
2770,2.77,961
2771,2.771,938
2772,2.772,758
2773,2.773,760
2774,2.774,991
2775,2.775,955
2776,2.776,855
2777,2.777,864
2778,2.778,923
2779,2.779,896
2780,2.78,880
2781,2.781,919
2782,2.782,905
2783,2.783,866
2784,2.784,869
2785,2.785,869
2786,2.786,912
2787,2.787,951
2788,2.788,944
2789,2.789,908
2790,2.79,869
2791,2.791,825
2792,2.792,787
2793,2.793,761
2794,2.794,810
2795,2.795,911
2796,2.796,909
2797,2.797,904
2798,2.798,929
2799,2.799,960
2800,2.8,983
2801,2.801,1003
2802,2.802,935
2803,2.803,816
2804,2.804,605
2805,2.805,659
2806,2.806,893
2807,2.807,1105
2808,2.808,1266
2809,2.809,1152
2810,2.81,790
2811,2.811,560
2812,2.812,558
2813,2.813,759
2814,2.814,998
2815,2.815,1001
2816,2.816,895
2817,2.817,794
2818,2.818,700
2819,2.819,807
2820,2.82,930
2821,2.821,1007
2822,2.822,1054
2823,2.823,1013
2824,2.824,994
2825,2.825,971
2826,2.826,821
2827,2.827,683
2828,2.828,731
2829,2.829,1127
2830,2.83,1150
2831,2.831,994
2832,2.832,791
2833,2.833,995
2834,2.834,1046
2835,2.835,896
2836,2.836,879
2837,2.837,860
2838,2.838,855
2839,2.839,835
2840,2.84,785
2841,2.841,769
2842,2.842,817
2843,2.843,976
2844,2.844,1061
2845,2.845,1013
2846,2.846,784
2847,2.847,719
2848,2.848,704
2849,2.849,781
2850,2.85,854
2851,2.851,957
2852,2.852,829
2853,2.853,755
2854,2.854,886
2855,2.855,965
2856,2.856,947
2857,2.857,977
2858,2.858,1023
2859,2.859,977
2860,2.86,901
2861,2.861,965
2862,2.862,897
2863,2.863,785
2864,2.864,802
2865,2.865,848
2866,2.866,820
2867,2.867,907
2868,2.868,912
2869,2.869,917
2870,2.87,974
2871,2.871,957
2872,2.872,906
2873,2.873,816
2874,2.874,838
2875,2.875,880
2876,2.876,914
2877,2.877,891
2878,2.878,839
2879,2.879,811
2880,2.88,810
2881,2.881,848
2882,2.882,933
2883,2.883,886
2884,2.884,816
2885,2.885,897
2886,2.886,955
2887,2.887,960
2888,2.888,869
2889,2.889,853
2890,2.89,895
2891,2.891,862
2892,2.892,832
2893,2.893,861
2894,2.894,930
2895,2.895,971
2896,2.896,914
2897,2.897,874
2898,2.898,789
2899,2.899,765
2900,2.9,976
2901,2.901,990
2902,2.902,871
2903,2.903,804
2904,2.904,831
2905,2.905,844
2906,2.906,880
2907,2.907,848
2908,2.908,929
2909,2.909,897
2910,2.91,853
2911,2.911,843
2912,2.912,881
2913,2.913,1040
2914,2.914,886
2915,2.915,813
2916,2.916,859
2917,2.917,821
2918,2.918,816
2919,2.919,933
2920,2.92,891
2921,2.921,832
2922,2.922,934
2923,2.923,875
2924,2.924,896
2925,2.925,881
2926,2.926,983
2927,2.927,1015
2928,2.928,917
2929,2.929,880
2930,2.93,922
2931,2.931,917
2932,2.932,915
2933,2.933,877
2934,2.934,859
2935,2.935,769
2936,2.936,707
2937,2.937,760
2938,2.938,848
2939,2.939,912
2940,2.94,941
2941,2.941,945
2942,2.942,847
2943,2.943,803
2944,2.944,851
2945,2.945,895
2946,2.946,991
2947,2.947,1013
2948,2.948,854
2949,2.949,834
2950,2.95,830
2951,2.951,794
2952,2.952,845
2953,2.953,893
2954,2.954,909
2955,2.955,1023
2956,2.956,1090
2957,2.957,978
2958,2.958,781
2959,2.959,711
2960,2.96,826
2961,2.961,875
2962,2.962,912
2963,2.963,977
2964,2.964,977
2965,2.965,946
2966,2.966,880
2967,2.967,849
2968,2.968,853
2969,2.969,820
2970,2.97,815
2971,2.971,811
2972,2.972,804
2973,2.973,826
2974,2.974,846
2975,2.975,861
2976,2.976,795
2977,2.977,818
2978,2.978,947
2979,2.979,995
2980,2.98,990
2981,2.981,863
2982,2.982,869
2983,2.983,967
2984,2.984,1078
2985,2.985,883
2986,2.986,753
2987,2.987,1113
2988,2.988,1247
2989,2.989,963
2990,2.99,783
2991,2.991,715
2992,2.992,806
2993,2.993,803
2994,2.994,796
2995,2.995,902
2996,2.996,960
2997,2.997,949
2998,2.998,814
2999,2.999,726
3000,3.0,798
3001,3.001,849
3002,3.002,872
3003,3.003,863
3004,3.004,751
3005,3.005,801
3006,3.006,859
3007,3.007,801
3008,3.008,784
3009,3.009,911
3010,3.01,1008
3011,3.011,973
3012,3.012,912
3013,3.013,890
3014,3.014,850
3015,3.015,893
3016,3.016,871
3017,3.017,855
3018,3.018,816
3019,3.019,895
3020,3.02,965
3021,3.021,944
3022,3.022,878
3023,3.023,912
3024,3.024,1023
3025,3.025,986
3026,3.026,873
3027,3.027,766
3028,3.028,829
3029,3.029,851
3030,3.03,826
3031,3.031,811
3032,3.032,803
3033,3.033,842
3034,3.034,915
3035,3.035,964
3036,3.036,989
3037,3.037,912
3038,3.038,843
3039,3.039,843
3040,3.04,845
3041,3.041,887
3042,3.042,886
3043,3.043,887
3044,3.044,881
3045,3.045,891
3046,3.046,864
3047,3.047,850
3048,3.048,880
3049,3.049,859
3050,3.05,776
3051,3.051,754
3052,3.052,769
3053,3.053,892
3054,3.054,990
3055,3.055,1042
3056,3.056,982
3057,3.057,941
3058,3.058,875
3059,3.059,877
3060,3.06,882
3061,3.061,878
3062,3.062,847
3063,3.063,839
3064,3.064,928
3065,3.065,937
3066,3.066,944
3067,3.067,890
3068,3.068,801
3069,3.069,829
3070,3.07,913
3071,3.071,923
3072,3.072,806
3073,3.073,803
3074,3.074,848
3075,3.075,825
3076,3.076,877
3077,3.077,906
3078,3.078,953
3079,3.079,955
3080,3.08,843
3081,3.081,738
3082,3.082,826
3083,3.083,976
3084,3.084,960
3085,3.085,915
3086,3.086,832
3087,3.087,797
3088,3.088,710
3089,3.089,756
3090,3.09,956
3091,3.091,989
3092,3.092,912
3093,3.093,846
3094,3.094,885
3095,3.095,974
3096,3.096,941
3097,3.097,877
3098,3.098,785
3099,3.099,757
3100,3.1,884
3101,3.101,1003
3102,3.102,1044
3103,3.103,881
3104,3.104,826
3105,3.105,880
3106,3.106,815
3107,3.107,714
3108,3.108,816
3109,3.109,961
3110,3.11,1031
3111,3.111,994
3112,3.112,945
3113,3.113,923
3114,3.114,893
3115,3.115,883
3116,3.116,865
3117,3.117,833
3118,3.118,816
3119,3.119,802
3120,3.12,906
3121,3.121,934
3122,3.122,912
3123,3.123,838
3124,3.124,777
3125,3.125,877
3126,3.126,927
3127,3.127,907
3128,3.128,880
3129,3.129,883
3130,3.13,844
3131,3.131,839
3132,3.132,944
3133,3.133,939
3134,3.134,807
3135,3.135,789
3136,3.136,857
3137,3.137,942
3138,3.138,924
3139,3.139,859
3140,3.14,753
3141,3.141,845
3142,3.142,922
3143,3.143,929
3144,3.144,977
3145,3.145,919
3146,3.146,899
3147,3.147,902
3148,3.148,850
3149,3.149,902
3150,3.15,883
3151,3.151,821
3152,3.152,877
3153,3.153,896
3154,3.154,901
3155,3.155,891
3156,3.156,816
3157,3.157,771
3158,3.158,846
3159,3.159,877
3160,3.16,966
3161,3.161,1023
3162,3.162,929
3163,3.163,755
3164,3.164,747
3165,3.165,902
3166,3.166,880
3167,3.167,922
3168,3.168,963
3169,3.169,881
3170,3.17,816
3171,3.171,896
3172,3.172,900
3173,3.173,820
3174,3.174,782
3175,3.175,780
3176,3.176,717
3177,3.177,709
3178,3.178,830
3179,3.179,919
3180,3.18,961
3181,3.181,1023
3182,3.182,1094
3183,3.183,1073
3184,3.184,1017
3185,3.185,938
3186,3.186,880
3187,3.187,806
3188,3.188,812
3189,3.189,815
3190,3.19,813
3191,3.191,870
3192,3.192,896
3193,3.193,918
3194,3.194,778
3195,3.195,652
3196,3.196,772
3197,3.197,978
3198,3.198,1044
3199,3.199,893
3200,3.2,812
3201,3.201,925
3202,3.202,889
3203,3.203,871
3204,3.204,906
3205,3.205,871
3206,3.206,850
3207,3.207,832
3208,3.208,929
3209,3.209,951
3210,3.21,957
3211,3.211,898
3212,3.212,787
3213,3.213,741
3214,3.214,895
3215,3.215,1030
3216,3.216,1055
3217,3.217,943
3218,3.218,866
3219,3.219,831
3220,3.22,845
3221,3.221,823
3222,3.222,761
3223,3.223,849
3224,3.224,965
3225,3.225,981
3226,3.226,957
3227,3.227,859
3228,3.228,880
3229,3.229,929
3230,3.23,894
3231,3.231,803
3232,3.232,819
3233,3.233,955
3234,3.234,818
3235,3.235,848
3236,3.236,816
3237,3.237,865
3238,3.238,891
3239,3.239,898
3240,3.24,881
3241,3.241,939
3242,3.242,848
3243,3.243,846
3244,3.244,863
3245,3.245,911
3246,3.246,807
3247,3.247,721
3248,3.248,810
3249,3.249,949
3250,3.25,1055
3251,3.251,944
3252,3.252,907
3253,3.253,829
3254,3.254,831
3255,3.255,903
3256,3.256,943
3257,3.257,918
3258,3.258,900
3259,3.259,864
3260,3.26,880
3261,3.261,942
3262,3.262,944
3263,3.263,924
3264,3.264,866
3265,3.265,801
3266,3.266,784
3267,3.267,802
3268,3.268,848
3269,3.269,902
3270,3.27,901
3271,3.271,927
3272,3.272,848
3273,3.273,818
3274,3.274,892
3275,3.275,943
3276,3.276,910
3277,3.277,892
3278,3.278,876
3279,3.279,882
3280,3.28,922
3281,3.281,929
3282,3.282,890
3283,3.283,870
3284,3.284,870
3285,3.285,899
3286,3.286,1002
3287,3.287,992
3288,3.288,892
3289,3.289,720
3290,3.29,720
3291,3.291,849
3292,3.292,890
3293,3.293,790
3294,3.294,800
3295,3.295,811
3296,3.296,822
3297,3.297,915
3298,3.298,986
3299,3.299,942
3300,3.3,903
3301,3.301,855
3302,3.302,846
3303,3.303,898
3304,3.304,912
3305,3.305,880
3306,3.306,887
3307,3.307,899
3308,3.308,927
3309,3.309,890
3310,3.31,833
3311,3.311,819
3312,3.312,848
3313,3.313,869
3314,3.314,849
3315,3.315,902
3316,3.316,898
3317,3.317,880
3318,3.318,877
3319,3.319,909
3320,3.32,898
3321,3.321,850
3322,3.322,902
3323,3.323,896
3324,3.324,919
3325,3.325,929
3326,3.326,914
3327,3.327,871
3328,3.328,813
3329,3.329,804
3330,3.33,831
3331,3.331,880
3332,3.332,949
3333,3.333,878
3334,3.334,832
3335,3.335,871
3336,3.336,927
3337,3.337,941
3338,3.338,839
3339,3.339,836
3340,3.34,861
3341,3.341,873
3342,3.342,879
3343,3.343,881
3344,3.344,875
3345,3.345,857
3346,3.346,873
3347,3.347,939
3348,3.348,901
3349,3.349,875
3350,3.35,889
3351,3.351,909
3352,3.352,941
3353,3.353,923
3354,3.354,837
3355,3.355,779
3356,3.356,807
3357,3.357,860
3358,3.358,889
3359,3.359,930
3360,3.36,907
3361,3.361,876
3362,3.362,817
3363,3.363,842
3364,3.364,940
3365,3.365,953
3366,3.366,931
3367,3.367,877
3368,3.368,848
3369,3.369,887
3370,3.37,977
3371,3.371,937
3372,3.372,880
3373,3.373,815
3374,3.374,853
3375,3.375,832
3376,3.376,734
3377,3.377,832
3378,3.378,949
3379,3.379,913
3380,3.38,862
3381,3.381,880
3382,3.382,911
3383,3.383,899
3384,3.384,880
3385,3.385,862
3386,3.386,890
3387,3.387,872
3388,3.388,896
3389,3.389,897
3390,3.39,875
3391,3.391,849
3392,3.392,843
3393,3.393,829
3394,3.394,913
3395,3.395,1019
3396,3.396,961
3397,3.397,810
3398,3.398,848
3399,3.399,879
3400,3.4,816
3401,3.401,889
3402,3.402,939
3403,3.403,913
3404,3.404,924
3405,3.405,838
3406,3.406,861
3407,3.407,870
3408,3.408,880
3409,3.409,930
3410,3.41,876
3411,3.411,891
3412,3.412,901
3413,3.413,871
3414,3.414,898
3415,3.415,870
3416,3.416,896
3417,3.417,884
3418,3.418,880
3419,3.419,863
3420,3.42,829
3421,3.421,877
3422,3.422,889
3423,3.423,854
3424,3.424,859
3425,3.425,878
3426,3.426,902
3427,3.427,929
3428,3.428,915
3429,3.429,933
3430,3.43,863
3431,3.431,848
3432,3.432,810
3433,3.433,848
3434,3.434,836
3435,3.435,847
3436,3.436,904
3437,3.437,902
3438,3.438,887
3439,3.439,888
3440,3.44,880
3441,3.441,891
3442,3.442,871
3443,3.443,832
3444,3.444,832
3445,3.445,852
3446,3.446,972
3447,3.447,959
3448,3.448,910
3449,3.449,905
3450,3.45,887
3451,3.451,845
3452,3.452,855
3453,3.453,903
3454,3.454,906
3455,3.455,867
3456,3.456,862
3457,3.457,877
3458,3.458,880
3459,3.459,880
3460,3.46,894
3461,3.461,878
3462,3.462,875
3463,3.463,885
3464,3.464,895
3465,3.465,911
3466,3.466,887
3467,3.467,863
3468,3.468,880
3469,3.469,942
3470,3.47,976
3471,3.471,961
3472,3.472,850
3473,3.473,714
3474,3.474,730
3475,3.475,810
3476,3.476,912
3477,3.477,995
3478,3.478,977
3479,3.479,918
3480,3.48,842
3481,3.481,827
3482,3.482,834
3483,3.483,848
3484,3.484,880
3485,3.485,891
3486,3.486,894
3487,3.487,880
3488,3.488,880
3489,3.489,880
3490,3.49,894
3491,3.491,874
3492,3.492,869
3493,3.493,912
3494,3.494,933
3495,3.495,937
3496,3.496,877
3497,3.497,819
3498,3.498,764
3499,3.499,816
3500,3.5,912
3501,3.501,947
3502,3.502,886
3503,3.503,880
3504,3.504,880
3505,3.505,858
3506,3.506,883
3507,3.507,890
3508,3.508,874
3509,3.509,879
3510,3.51,897
3511,3.511,906
3512,3.512,895
3513,3.513,865
3514,3.514,858
3515,3.515,859
3516,3.516,848
3517,3.517,837
3518,3.518,863
3519,3.519,949
3520,3.52,958
3521,3.521,882
3522,3.522,816
3523,3.523,862
3524,3.524,902
3525,3.525,865
3526,3.526,858
3527,3.527,880
3528,3.528,892
3529,3.529,917
3530,3.53,902
3531,3.531,889
3532,3.532,880
3533,3.533,880
3534,3.534,869
3535,3.535,874
3536,3.536,864
3537,3.537,868
3538,3.538,849
3539,3.539,853
3540,3.54,865
3541,3.541,896
3542,3.542,923
3543,3.543,864
3544,3.544,873
3545,3.545,860
3546,3.546,880
3547,3.547,911
3548,3.548,928
3549,3.549,902
3550,3.55,874
3551,3.551,847
3552,3.552,828
3553,3.553,923
3554,3.554,891
3555,3.555,905
3556,3.556,910
3557,3.557,862
3558,3.558,818
3559,3.559,866
3560,3.56,870
3561,3.561,874
3562,3.562,946
3563,3.563,984
3564,3.564,976
3565,3.565,848
3566,3.566,726
3567,3.567,735
3568,3.568,886
3569,3.569,1040
3570,3.57,965
3571,3.571,833
3572,3.572,853
3573,3.573,849
3574,3.574,860
3575,3.575,874
3576,3.576,851
3577,3.577,878
3578,3.578,875
3579,3.579,868
3580,3.58,873
3581,3.581,880
3582,3.582,881
3583,3.583,880
3584,3.584,880
3585,3.585,867
3586,3.586,851
3587,3.587,861
3588,3.588,895
3589,3.589,937
3590,3.59,913
3591,3.591,865
3592,3.592,867
3593,3.593,803
3594,3.594,843
3595,3.595,895
3596,3.596,873
3597,3.597,867
3598,3.598,874
3599,3.599,912
3600,3.6,928
3601,3.601,890
3602,3.602,880
3603,3.603,869
3604,3.604,880
3605,3.605,878
3606,3.606,888
3607,3.607,895
3608,3.608,893
3609,3.609,883
3610,3.61,874
3611,3.611,880
3612,3.612,895
3613,3.613,912
3614,3.614,882
3615,3.615,848
3616,3.616,798
3617,3.617,829
3618,3.618,879
3619,3.619,907
3620,3.62,899
3621,3.621,848
3622,3.622,865
3623,3.623,927
3624,3.624,922
3625,3.625,904
3626,3.626,925
3627,3.627,935
3628,3.628,925
3629,3.629,865
3630,3.63,786
3631,3.631,827
3632,3.632,833
3633,3.633,848
3634,3.634,858
3635,3.635,889
3636,3.636,933
3637,3.637,933
3638,3.638,896
3639,3.639,864
3640,3.64,784
3641,3.641,795
3642,3.642,793
3643,3.643,861
3644,3.644,938
3645,3.645,1003
3646,3.646,1031
3647,3.647,912
3648,3.648,817
3649,3.649,859
3650,3.65,871
3651,3.651,879
3652,3.652,866
3653,3.653,877
3654,3.654,899
3655,3.655,891
3656,3.656,884
3657,3.657,876
3658,3.658,871
3659,3.659,862
3660,3.66,879
3661,3.661,880
3662,3.662,875
3663,3.663,883
3664,3.664,882
3665,3.665,880
3666,3.666,875
3667,3.667,880
3668,3.668,899
3669,3.669,898
3670,3.67,875
3671,3.671,874
3672,3.672,881
3673,3.673,892
3674,3.674,884
3675,3.675,869
3676,3.676,880
3677,3.677,863
3678,3.678,855
3679,3.679,874
3680,3.68,886
3681,3.681,880
3682,3.682,893
3683,3.683,894
3684,3.684,889
3685,3.685,885
3686,3.686,874
3687,3.687,875
3688,3.688,883
3689,3.689,880
3690,3.69,882
3691,3.691,912
3692,3.692,883
3693,3.693,863
3694,3.694,861
3695,3.695,867
3696,3.696,845
3697,3.697,806
3698,3.698,864
3699,3.699,880
3700,3.7,875
3701,3.701,878
3702,3.702,893
3703,3.703,912
3704,3.704,891
3705,3.705,934
3706,3.706,928
3707,3.707,877
3708,3.708,886
3709,3.709,898
3710,3.71,900
3711,3.711,849
3712,3.712,860
3713,3.713,891
3714,3.714,884
3715,3.715,880
3716,3.716,866
3717,3.717,878
3718,3.718,875
3719,3.719,877
3720,3.72,880
3721,3.721,880
3722,3.722,896
3723,3.723,885
3724,3.724,878
3725,3.725,922
3726,3.726,960
3727,3.727,970
3728,3.728,900
3729,3.729,805
3730,3.73,814
3731,3.731,849
3732,3.732,876
3733,3.733,863
3734,3.734,835
3735,3.735,864
3736,3.736,864
3737,3.737,873
3738,3.738,834
3739,3.739,870
3740,3.74,878
3741,3.741,889
3742,3.742,882
3743,3.743,886
3744,3.744,887
3745,3.745,865
3746,3.746,863
3747,3.747,859
3748,3.748,878
3749,3.749,927
3750,3.75,918
3751,3.751,896
3752,3.752,879
3753,3.753,876
3754,3.754,875
3755,3.755,878
3756,3.756,877
3757,3.757,861
3758,3.758,849
3759,3.759,874
3760,3.76,878
3761,3.761,878
3762,3.762,879
3763,3.763,879
3764,3.764,880
3765,3.765,895
3766,3.766,885
3767,3.767,890
3768,3.768,880
3769,3.769,886
3770,3.77,880
3771,3.771,881
3772,3.772,880
3773,3.773,886
3774,3.774,877
3775,3.775,897
3776,3.776,881
3777,3.777,865
3778,3.778,870
3779,3.779,871
3780,3.78,862
3781,3.781,859
3782,3.782,849
3783,3.783,861
3784,3.784,859
3785,3.785,880
3786,3.786,915
3787,3.787,925
3788,3.788,913
3789,3.789,915
3790,3.79,898
3791,3.791,877
3792,3.792,880
3793,3.793,889
3794,3.794,889
3795,3.795,907
3796,3.796,930
3797,3.797,971
3798,3.798,893
3799,3.799,848
3800,3.8,835
3801,3.801,850
3802,3.802,897
3803,3.803,897
3804,3.804,768
3805,3.805,729
3806,3.806,787
3807,3.807,865
3808,3.808,884
3809,3.809,895
3810,3.81,957
3811,3.811,945
3812,3.812,896
3813,3.813,863
3814,3.814,837
3815,3.815,837
3816,3.816,906
3817,3.817,967
3818,3.818,963
3819,3.819,906
3820,3.82,819
3821,3.821,827
3822,3.822,894
3823,3.823,897
3824,3.824,848
3825,3.825,818
3826,3.826,827
3827,3.827,914
3828,3.828,985
3829,3.829,944
3830,3.83,896
3831,3.831,832
3832,3.832,838
3833,3.833,857
3834,3.834,849
3835,3.835,881
3836,3.836,912
3837,3.837,791
3838,3.838,854
3839,3.839,885
3840,3.84,925
3841,3.841,944
3842,3.842,880
3843,3.843,843
3844,3.844,844
3845,3.845,848
3846,3.846,880
3847,3.847,875
3848,3.848,875
3849,3.849,905
3850,3.85,880
3851,3.851,890
3852,3.852,960
3853,3.853,950
3854,3.854,866
3855,3.855,769
3856,3.856,726
3857,3.857,807
3858,3.858,854
3859,3.859,915
3860,3.86,925
3861,3.861,935
3862,3.862,944
3863,3.863,897
3864,3.864,887
3865,3.865,862
3866,3.866,838
3867,3.867,831
3868,3.868,767
3869,3.869,755
3870,3.87,770
3871,3.871,803
3872,3.872,832
3873,3.873,955
3874,3.874,1190
3875,3.875,1151
3876,3.876,1045
3877,3.877,923
3878,3.878,749
3879,3.879,798
3880,3.88,839
3881,3.881,871
3882,3.882,877
3883,3.883,821
3884,3.884,807
3885,3.885,851
3886,3.886,917
3887,3.887,981
3888,3.888,969
3889,3.889,945
3890,3.89,869
3891,3.891,845
3892,3.892,819
3893,3.893,877
3894,3.894,848
3895,3.895,830
3896,3.896,873
3897,3.897,935
3898,3.898,918
3899,3.899,846
3900,3.9,818
3901,3.901,851
3902,3.902,885
3903,3.903,947
3904,3.904,911
3905,3.905,866
3906,3.906,900
3907,3.907,924
3908,3.908,953
3909,3.909,910
3910,3.91,898
3911,3.911,828
3912,3.912,784
3913,3.913,807
3914,3.914,845
3915,3.915,870
3916,3.916,944
3917,3.917,951
3918,3.918,867
3919,3.919,847
3920,3.92,838
3921,3.921,855
3922,3.922,899
3923,3.923,903
3924,3.924,885
3925,3.925,844
3926,3.926,851
3927,3.927,880
3928,3.928,889
3929,3.929,885
3930,3.93,853
3931,3.931,912
3932,3.932,961
3933,3.933,961
3934,3.934,921
3935,3.935,877
3936,3.936,795
3937,3.937,746
3938,3.938,830
3939,3.939,896
3940,3.94,925
3941,3.941,921
3942,3.942,911
3943,3.943,900
3944,3.944,880
3945,3.945,870
3946,3.946,814
3947,3.947,834
3948,3.948,914
3949,3.949,890
3950,3.95,848
3951,3.951,814
3952,3.952,794
3953,3.953,864
3954,3.954,937
3955,3.955,938
3956,3.956,873
3957,3.957,879
3958,3.958,921
3959,3.959,909
3960,3.96,915
3961,3.961,892
3962,3.962,832
3963,3.963,835
3964,3.964,845
3965,3.965,899
3966,3.966,933
3967,3.967,907
3968,3.968,875
3969,3.969,881
3970,3.97,864
3971,3.971,832
3972,3.972,817
3973,3.973,842
3974,3.974,940
3975,3.975,972
3976,3.976,915
3977,3.977,881
3978,3.978,862
3979,3.979,827
3980,3.98,864
3981,3.981,915
3982,3.982,882
3983,3.983,868
3984,3.984,875
3985,3.985,879
3986,3.986,896
3987,3.987,896
3988,3.988,899
3989,3.989,929
3990,3.99,889
3991,3.991,887
3992,3.992,912
3993,3.993,854
3994,3.994,833
3995,3.995,803
3996,3.996,838
3997,3.997,832
3998,3.998,859
3999,3.999,941
4000,4.0,897
4001,4.001,866
4002,4.002,778
4003,4.003,757
4004,4.004,912
4005,4.005,979
4006,4.006,983
4007,4.007,947
4008,4.008,891
4009,4.009,893
4010,4.01,922
4011,4.011,921
4012,4.012,896
4013,4.013,886
4014,4.014,902
4015,4.015,882
4016,4.016,853
4017,4.017,845
4018,4.018,878
4019,4.019,914
4020,4.02,868
4021,4.021,854
4022,4.022,867
4023,4.023,846
4024,4.024,843
4025,4.025,823
4026,4.026,816
4027,4.027,912
4028,4.028,996
4029,4.029,1014
4030,4.03,929
4031,4.031,831
4032,4.032,849
4033,4.033,821
4034,4.034,865
4035,4.035,897
4036,4.036,874
4037,4.037,853
4038,4.038,830
4039,4.039,863
4040,4.04,891
4041,4.041,902
4042,4.042,894
4043,4.043,882
4044,4.044,875
4045,4.045,861
4046,4.046,853
4047,4.047,891
4048,4.048,976
4049,4.049,989
4050,4.05,944
4051,4.051,867
4052,4.052,779
4053,4.053,848
4054,4.054,951
4055,4.055,901
4056,4.056,843
4057,4.057,752
4058,4.058,748
4059,4.059,778
4060,4.06,895
4061,4.061,953
4062,4.062,948
4063,4.063,1008
4064,4.064,962
4065,4.065,882
4066,4.066,811
4067,4.067,786
4068,4.068,728
4069,4.069,831
4070,4.07,960
4071,4.071,975
4072,4.072,987
4073,4.073,986
4074,4.074,898
4075,4.075,880
4076,4.076,853
4077,4.077,864
4078,4.078,832
4079,4.079,816
4080,4.08,762
4081,4.081,675
4082,4.082,785
4083,4.083,947
4084,4.084,1088
4085,4.085,1086
4086,4.086,979
4087,4.087,906
4088,4.088,945
4089,4.089,991
4090,4.09,961
4091,4.091,873
4092,4.092,801
4093,4.093,807
4094,4.094,826
4095,4.095,838
4096,4.096,848
4097,4.097,859
4098,4.098,851
4099,4.099,903
4100,4.1,882
4101,4.101,773
4102,4.102,749
4103,4.103,834
4104,4.104,947
4105,4.105,979
4106,4.106,961
4107,4.107,861
4108,4.108,819
4109,4.109,854
4110,4.11,888
4111,4.111,898
4112,4.112,958
4113,4.113,933
4114,4.114,896
4115,4.115,886
4116,4.116,870
4117,4.117,871
4118,4.118,837
4119,4.119,793
4120,4.12,831
4121,4.121,885
4122,4.122,927
4123,4.123,880
4124,4.124,861
4125,4.125,894
4126,4.126,923
4127,4.127,862
4128,4.128,924
4129,4.129,909
4130,4.13,929
4131,4.131,937
4132,4.132,875
4133,4.133,822
4134,4.134,777
4135,4.135,786
4136,4.136,838
4137,4.137,907
4138,4.138,885
4139,4.139,810
4140,4.14,835
4141,4.141,877
4142,4.142,891
4143,4.143,892
4144,4.144,907
4145,4.145,938
4146,4.146,899
4147,4.147,916
4148,4.148,967
4149,4.149,1011
4150,4.15,973
4151,4.151,853
4152,4.152,799
4153,4.153,775
4154,4.154,782
4155,4.155,834
4156,4.156,901
4157,4.157,848
4158,4.158,893
4159,4.159,889
4160,4.16,916
4161,4.161,893
4162,4.162,947
4163,4.163,947
4164,4.164,930
4165,4.165,863
4166,4.166,827
4167,4.167,790
4168,4.168,816
4169,4.169,843
4170,4.17,880
4171,4.171,860
4172,4.172,848
4173,4.173,841
4174,4.174,831
4175,4.175,880
4176,4.176,975
4177,4.177,975
4178,4.178,944
4179,4.179,899
4180,4.18,823
4181,4.181,848
4182,4.182,866
4183,4.183,852
4184,4.184,895
4185,4.185,946
4186,4.186,941
4187,4.187,902
4188,4.188,848
4189,4.189,874
4190,4.19,847
4191,4.191,852
4192,4.192,823
4193,4.193,848
4194,4.194,880
4195,4.195,859
4196,4.196,826
4197,4.197,835
4198,4.198,899
4199,4.199,919
4200,4.2,907
4201,4.201,967
4202,4.202,912
4203,4.203,918
4204,4.204,870
4205,4.205,865
4206,4.206,863
4207,4.207,869
4208,4.208,883
4209,4.209,884
4210,4.21,908
4211,4.211,912
4212,4.212,883
4213,4.213,849
4214,4.214,886
4215,4.215,912
4216,4.216,883
4217,4.217,882
4218,4.218,884
4219,4.219,878
4220,4.22,906
4221,4.221,867
4222,4.222,842
4223,4.223,844
4224,4.224,847
4225,4.225,888
4226,4.226,910
4227,4.227,842
4228,4.228,869
4229,4.229,878
4230,4.23,833
4231,4.231,810
4232,4.232,848
4233,4.233,901
4234,4.234,998
4235,4.235,1008
4236,4.236,978
4237,4.237,900
4238,4.238,884
4239,4.239,815
4240,4.24,758
4241,4.241,745
4242,4.242,727
4243,4.243,829
4244,4.244,971
4245,4.245,1049
4246,4.246,1003
4247,4.247,944
4248,4.248,872
4249,4.249,853
4250,4.25,859
4251,4.251,773
4252,4.252,731
4253,4.253,798
4254,4.254,933
4255,4.255,976
4256,4.256,960
4257,4.257,848
4258,4.258,754
4259,4.259,909
4260,4.26,962
4261,4.261,971
4262,4.262,1015
4263,4.263,970
4264,4.264,836
4265,4.265,834
4266,4.266,835
4267,4.267,756
4268,4.268,930
4269,4.269,1081
4270,4.27,1037
4271,4.271,907
4272,4.272,791
4273,4.273,699
4274,4.274,743
4275,4.275,871
4276,4.276,941
4277,4.277,939
4278,4.278,902
4279,4.279,869
4280,4.28,771
4281,4.281,691
4282,4.282,773
4283,4.283,886
4284,4.284,976
4285,4.285,846
4286,4.286,795
4287,4.287,901
4288,4.288,977
4289,4.289,970
4290,4.29,830
4291,4.291,817
4292,4.292,876
4293,4.293,941
4294,4.294,967
4295,4.295,950
4296,4.296,933
4297,4.297,867
4298,4.298,860
4299,4.299,977
4300,4.3,969
4301,4.301,919
4302,4.302,875
4303,4.303,866
4304,4.304,880
4305,4.305,895
4306,4.306,889
4307,4.307,850
4308,4.308,885
4309,4.309,919
4310,4.31,895
4311,4.311,773
4312,4.312,802
4313,4.313,883
4314,4.314,873
4315,4.315,873
4316,4.316,877
4317,4.317,843
4318,4.318,752
4319,4.319,773
4320,4.32,806
4321,4.321,917
4322,4.322,1013
4323,4.323,891
4324,4.324,882
4325,4.325,905
4326,4.326,929
4327,4.327,939
4328,4.328,916
4329,4.329,869
4330,4.33,865
4331,4.331,826
4332,4.332,933
4333,4.333,990
4334,4.334,943
4335,4.335,905
4336,4.336,927
4337,4.337,847
4338,4.338,893
4339,4.339,819
4340,4.34,715
4341,4.341,562
4342,4.342,769
4343,4.343,1039
4344,4.344,1083
4345,4.345,929
4346,4.346,867
4347,4.347,878
4348,4.348,865
4349,4.349,830
4350,4.35,826
4351,4.351,897
4352,4.352,873
4353,4.353,884
4354,4.354,945
4355,4.355,978
4356,4.356,896
4357,4.357,879
4358,4.358,857
4359,4.359,919
4360,4.36,914
4361,4.361,851
4362,4.362,848
4363,4.363,841
4364,4.364,902
4365,4.365,894
4366,4.366,825
4367,4.367,843
4368,4.368,882
4369,4.369,1043
4370,4.37,929
4371,4.371,814
4372,4.372,838
4373,4.373,889
4374,4.374,905
4375,4.375,911
4376,4.376,875
4377,4.377,883
4378,4.378,869
4379,4.379,823
4380,4.38,832
4381,4.381,893
4382,4.382,890
4383,4.383,921
4384,4.384,960
4385,4.385,870
4386,4.386,832
4387,4.387,865
4388,4.388,899
4389,4.389,882
4390,4.39,851
4391,4.391,875
4392,4.392,864
4393,4.393,802
4394,4.394,798
4395,4.395,887
4396,4.396,955
4397,4.397,937
4398,4.398,911
4399,4.399,887
4400,4.4,894
4401,4.401,882
4402,4.402,880
4403,4.403,859
4404,4.404,839
4405,4.405,841
4406,4.406,831
4407,4.407,881
4408,4.408,931
4409,4.409,933
4410,4.41,941
4411,4.411,881
4412,4.412,889
4413,4.413,912
4414,4.414,905
4415,4.415,878
4416,4.416,839
4417,4.417,817
4418,4.418,817
4419,4.419,863
4420,4.42,873
4421,4.421,897
4422,4.422,911
4423,4.423,879
4424,4.424,848
4425,4.425,853
4426,4.426,867
4427,4.427,876
4428,4.428,896
4429,4.429,896
4430,4.43,983
4431,4.431,923
4432,4.432,890
4433,4.433,889
4434,4.434,943
4435,4.435,923
4436,4.436,915
4437,4.437,875
4438,4.438,829
4439,4.439,816
4440,4.44,895
4441,4.441,862
4442,4.442,854
4443,4.443,864
4444,4.444,848
4445,4.445,894
4446,4.446,907
4447,4.447,822
4448,4.448,880
4449,4.449,912
4450,4.45,863
4451,4.451,803
4452,4.452,802
4453,4.453,854
4454,4.454,914
4455,4.455,919
4456,4.456,935
4457,4.457,853
4458,4.458,861
4459,4.459,857
4460,4.46,814
4461,4.461,857
4462,4.462,953
4463,4.463,1007
4464,4.464,901
4465,4.465,823
4466,4.466,826
4467,4.467,895
4468,4.468,943
4469,4.469,869
4470,4.47,802
4471,4.471,822
4472,4.472,879
4473,4.473,890
4474,4.474,937
4475,4.475,896
4476,4.476,911
4477,4.477,897
4478,4.478,899
4479,4.479,823
4480,4.48,747
4481,4.481,816
4482,4.482,925
4483,4.483,912
4484,4.484,925
4485,4.485,858
4486,4.486,891
4487,4.487,935
4488,4.488,866
4489,4.489,854
4490,4.49,954
4491,4.491,949
4492,4.492,858
4493,4.493,818
4494,4.494,752
4495,4.495,848
4496,4.496,912
4497,4.497,960
4498,4.498,954
4499,4.499,867
4500,4.5,889
4501,4.501,894
4502,4.502,885
4503,4.503,836
4504,4.504,908
4505,4.505,929
4506,4.506,896
4507,4.507,882
4508,4.508,848
4509,4.509,859
4510,4.51,863
4511,4.511,848
4512,4.512,883
4513,4.513,869
4514,4.514,880
4515,4.515,912
4516,4.516,947
4517,4.517,964
4518,4.518,856
4519,4.519,865
4520,4.52,875
4521,4.521,863
4522,4.522,826
4523,4.523,829
4524,4.524,890
4525,4.525,893
4526,4.526,784
4527,4.527,811
4528,4.528,851
4529,4.529,907
4530,4.53,929
4531,4.531,895
4532,4.532,843
4533,4.533,883
4534,4.534,948
4535,4.535,902
4536,4.536,857
4537,4.537,803
4538,4.538,870
4539,4.539,917
4540,4.54,947
4541,4.541,895
4542,4.542,802
4543,4.543,809
4544,4.544,928
4545,4.545,893
4546,4.546,880
4547,4.547,832
4548,4.548,829
4549,4.549,883
4550,4.55,939
4551,4.551,873
4552,4.552,890
4553,4.553,900
4554,4.554,928
4555,4.555,951
4556,4.556,842
4557,4.557,799
4558,4.558,832
4559,4.559,903
4560,4.56,912
4561,4.561,854
4562,4.562,885
4563,4.563,891
4564,4.564,909
4565,4.565,896
4566,4.566,879
4567,4.567,877
4568,4.568,886
4569,4.569,879
4570,4.57,880
4571,4.571,866
4572,4.572,818
4573,4.573,781
4574,4.574,793
4575,4.575,901
4576,4.576,967
4577,4.577,941
4578,4.578,913
4579,4.579,901
4580,4.58,944
4581,4.581,902
4582,4.582,819
4583,4.583,770
4584,4.584,810
4585,4.585,850
4586,4.586,851
4587,4.587,993
4588,4.588,958
4589,4.589,924
4590,4.59,867
4591,4.591,820
4592,4.592,878
4593,4.593,891
4594,4.594,911
4595,4.595,951
4596,4.596,886
4597,4.597,838
4598,4.598,882
4599,4.599,901
4600,4.6,896
4601,4.601,925
4602,4.602,942
4603,4.603,942
4604,4.604,880
4605,4.605,790
4606,4.606,850
4607,4.607,842
4608,4.608,823
4609,4.609,757
4610,4.61,846
4611,4.611,906
4612,4.612,948
4613,4.613,910
4614,4.614,794
4615,4.615,784
4616,4.616,892
4617,4.617,938
4618,4.618,895
4619,4.619,859
4620,4.62,880
4621,4.621,907
4622,4.622,912
4623,4.623,889
4624,4.624,883
4625,4.625,863
4626,4.626,861
4627,4.627,847
4628,4.628,874
4629,4.629,947
4630,4.63,989
4631,4.631,976
4632,4.632,889
4633,4.633,784
4634,4.634,764
4635,4.635,890
4636,4.636,946
4637,4.637,896
4638,4.638,913
4639,4.639,951
4640,4.64,829
4641,4.641,838
4642,4.642,878
4643,4.643,880
4644,4.644,882
4645,4.645,871
4646,4.646,805
4647,4.647,819
4648,4.648,830
4649,4.649,903
4650,4.65,961
4651,4.651,960
4652,4.652,832
4653,4.653,838
4654,4.654,1001
4655,4.655,1008
4656,4.656,905
4657,4.657,858
4658,4.658,813
4659,4.659,787
4660,4.66,784
4661,4.661,887
4662,4.662,928
4663,4.663,884
4664,4.664,803
4665,4.665,802
4666,4.666,880
4667,4.667,962
4668,4.668,912
4669,4.669,838
4670,4.67,880
4671,4.671,866
4672,4.672,934
4673,4.673,934
4674,4.674,1037
4675,4.675,907
4676,4.676,774
4677,4.677,795
4678,4.678,762
4679,4.679,807
4680,4.68,870
4681,4.681,975
4682,4.682,1040
4683,4.683,927
4684,4.684,867
4685,4.685,860
4686,4.686,905
4687,4.687,925
4688,4.688,952
4689,4.689,991
4690,4.69,976
4691,4.691,837
4692,4.692,795
4693,4.693,796
4694,4.694,816
4695,4.695,829
4696,4.696,867
4697,4.697,912
4698,4.698,882
4699,4.699,835
4700,4.7,825
4701,4.701,849
4702,4.702,866
4703,4.703,903
4704,4.704,908
4705,4.705,855
4706,4.706,871
4707,4.707,901
4708,4.708,930
4709,4.709,944
4710,4.71,958
4711,4.711,1023
4712,4.712,976
4713,4.713,756
4714,4.714,763
4715,4.715,789
4716,4.716,797
4717,4.717,862
4718,4.718,916
4719,4.719,960
4720,4.72,944
4721,4.721,879
4722,4.722,917
4723,4.723,894
4724,4.724,815
4725,4.725,842
4726,4.726,870
4727,4.727,876
4728,4.728,880
4729,4.729,903
4730,4.73,951
4731,4.731,892
4732,4.732,864
4733,4.733,907
4734,4.734,803
4735,4.735,781
4736,4.736,879
4737,4.737,955
4738,4.738,986
4739,4.739,887
4740,4.74,880
4741,4.741,898
4742,4.742,835
4743,4.743,803
4744,4.744,850
4745,4.745,934
4746,4.746,987
4747,4.747,970
4748,4.748,876
4749,4.749,880
4750,4.75,947
4751,4.751,879
4752,4.752,739
4753,4.753,784
4754,4.754,902
4755,4.755,944
4756,4.756,850
4757,4.757,730
4758,4.758,821
4759,4.759,791
4760,4.76,877
4761,4.761,974
4762,4.762,977
4763,4.763,918
4764,4.764,912
4765,4.765,905
4766,4.766,848
4767,4.767,869
4768,4.768,887
4769,4.769,887
4770,4.77,875
4771,4.771,811
4772,4.772,887
4773,4.773,880
4774,4.774,834
4775,4.775,902
4776,4.776,947
4777,4.777,901
4778,4.778,852
4779,4.779,877
4780,4.78,915
4781,4.781,914
4782,4.782,832
4783,4.783,802
4784,4.784,848
4785,4.785,854
4786,4.786,801
4787,4.787,831
4788,4.788,969
4789,4.789,934
4790,4.79,857
4791,4.791,891
4792,4.792,1008
4793,4.793,1008
4794,4.794,893
4795,4.795,774
4796,4.796,752
4797,4.797,822
4798,4.798,972
4799,4.799,927
4800,4.8,866
4801,4.801,849
4802,4.802,891
4803,4.803,925
4804,4.804,883
4805,4.805,864
4806,4.806,861
4807,4.807,838
4808,4.808,861
4809,4.809,880
4810,4.81,845
4811,4.811,935
4812,4.812,891
4813,4.813,893
4814,4.814,884
4815,4.815,854
4816,4.816,831
4817,4.817,817
4818,4.818,874
4819,4.819,897
4820,4.82,901
4821,4.821,877
4822,4.822,874
4823,4.823,914
4824,4.824,916
4825,4.825,864
4826,4.826,879
4827,4.827,840
4828,4.828,842
4829,4.829,939
4830,4.83,966
4831,4.831,914
4832,4.832,820
4833,4.833,759
4834,4.834,893
4835,4.835,974
4836,4.836,891
4837,4.837,835
4838,4.838,861
4839,4.839,815
4840,4.84,793
4841,4.841,882
4842,4.842,976
4843,4.843,1052
4844,4.844,976
4845,4.845,918
4846,4.846,851
4847,4.847,827
4848,4.848,880
4849,4.849,878
4850,4.85,869
4851,4.851,837
4852,4.852,843
4853,4.853,871
4854,4.854,880
4855,4.855,879
4856,4.856,937
4857,4.857,958
4858,4.858,978
4859,4.859,944
4860,4.86,831
4861,4.861,790
4862,4.862,802
4863,4.863,857
4864,4.864,956
4865,4.865,899
4866,4.866,824
4867,4.867,807
4868,4.868,843
4869,4.869,863
4870,4.87,868
4871,4.871,863
4872,4.872,880
4873,4.873,887
4874,4.874,790
4875,4.875,678
4876,4.876,824
4877,4.877,1013
4878,4.878,1099
4879,4.879,981
4880,4.88,919
4881,4.881,886
4882,4.882,834
4883,4.883,839
4884,4.884,902
4885,4.885,930
4886,4.886,944
4887,4.887,930
4888,4.888,880
4889,4.889,858
4890,4.89,845
4891,4.891,857
4892,4.892,871
4893,4.893,884
4894,4.894,912
4895,4.895,884
4896,4.896,925
4897,4.897,895
4898,4.898,811
4899,4.899,823
4900,4.9,906
4901,4.901,848
4902,4.902,729
4903,4.903,747
4904,4.904,969
4905,4.905,1022
4906,4.906,999
4907,4.907,902
4908,4.908,845
4909,4.909,918
4910,4.91,912
4911,4.911,819
4912,4.912,793
4913,4.913,781
4914,4.914,861
4915,4.915,911
4916,4.916,851
4917,4.917,883
4918,4.918,834
4919,4.919,801
4920,4.92,781
4921,4.921,737
4922,4.922,807
4923,4.923,904
4924,4.924,961
4925,4.925,951
4926,4.926,1039
4927,4.927,1075
4928,4.928,974
4929,4.929,959
4930,4.93,891
4931,4.931,838
4932,4.932,841
4933,4.933,850
4934,4.934,879
4935,4.935,870
4936,4.936,848
4937,4.937,776
4938,4.938,719
4939,4.939,786
4940,4.94,976
4941,4.941,970
4942,4.942,951
4943,4.943,979
4944,4.944,977
4945,4.945,907
4946,4.946,842
4947,4.947,778
4948,4.948,861
4949,4.949,912
4950,4.95,945
4951,4.951,910
4952,4.952,865
4953,4.953,865
4954,4.954,859
4955,4.955,797
4956,4.956,772
4957,4.957,799
4958,4.958,851
4959,4.959,1007
4960,4.96,1031
4961,4.961,906
4962,4.962,869
4963,4.963,896
4964,4.964,886
4965,4.965,880
4966,4.966,887
4967,4.967,882
4968,4.968,854
4969,4.969,789
4970,4.97,865
4971,4.971,921
4972,4.972,896
4973,4.973,848
4974,4.974,911
4975,4.975,1013
4976,4.976,895
4977,4.977,847
4978,4.978,878
4979,4.979,834
4980,4.98,827
4981,4.981,857
4982,4.982,879
4983,4.983,851
4984,4.984,910
4985,4.985,833
4986,4.986,833
4987,4.987,832
4988,4.988,849
4989,4.989,911
4990,4.99,972
4991,4.991,931
4992,4.992,925
4993,4.993,883
4994,4.994,875
4995,4.995,801
4996,4.996,850
4997,4.997,925
4998,4.998,958
4999,4.999,915
5000,5.0,867
5001,5.001,862
5002,5.002,944
5003,5.003,932
5004,5.004,852
5005,5.005,819
5006,5.006,766
5007,5.007,784
5008,5.008,863
5009,5.009,927
5010,5.01,880
5011,5.011,853
5012,5.012,896
5013,5.013,945
5014,5.014,929
5015,5.015,931
5016,5.016,906
5017,5.017,874
5018,5.018,835
5019,5.019,791
5020,5.02,848
5021,5.021,925
5022,5.022,1010
5023,5.023,976
5024,5.024,895
5025,5.025,880
5026,5.026,832
5027,5.027,836
5028,5.028,833
5029,5.029,882
5030,5.03,931
5031,5.031,898
5032,5.032,880
5033,5.033,863
5034,5.034,902
5035,5.035,902
5036,5.036,882
5037,5.037,801
5038,5.038,764
5039,5.039,849
5040,5.04,912
5041,5.041,999
5042,5.042,863
5043,5.043,944
5044,5.044,999
5045,5.045,956
5046,5.046,887
5047,5.047,800
5048,5.048,790
5049,5.049,797
5050,5.05,784
5051,5.051,827
5052,5.052,832
5053,5.053,866
5054,5.054,885
5055,5.055,896
5056,5.056,941
5057,5.057,945
5058,5.058,900
5059,5.059,797
5060,5.06,773
5061,5.061,840
5062,5.062,892
5063,5.063,861
5064,5.064,866
5065,5.065,880
5066,5.066,964
5067,5.067,989
5068,5.068,907
5069,5.069,857
5070,5.07,862
5071,5.071,860
5072,5.072,866
5073,5.073,927
5074,5.074,945
5075,5.075,918
5076,5.076,827
5077,5.077,765
5078,5.078,847
5079,5.079,889
5080,5.08,847
5081,5.081,783
5082,5.082,911
5083,5.083,945
5084,5.084,1003
5085,5.085,1046
5086,5.086,944
5087,5.087,913
5088,5.088,912
5089,5.089,878
5090,5.09,842
5091,5.091,838
5092,5.092,908
5093,5.093,926
5094,5.094,832
5095,5.095,825
5096,5.096,866
5097,5.097,841
5098,5.098,858
5099,5.099,842
5100,5.1,797
5101,5.101,787
5102,5.102,759
5103,5.103,880
5104,5.104,1076
5105,5.105,1022
5106,5.106,891
5107,5.107,836
5108,5.108,827
5109,5.109,831
5110,5.11,896
5111,5.111,961
5112,5.112,912
5113,5.113,881
5114,5.114,879
5115,5.115,931
5116,5.116,863
5117,5.117,863
5118,5.118,877
5119,5.119,897
5120,5.12,867
5121,5.121,851
5122,5.122,794
5123,5.123,897
5124,5.124,861
5125,5.125,896
5126,5.126,964
5127,5.127,895
5128,5.128,877
5129,5.129,893
5130,5.13,848
5131,5.131,843
5132,5.132,859
5133,5.133,878
5134,5.134,811
5135,5.135,767
5136,5.136,765
5137,5.137,871
5138,5.138,944
5139,5.139,846
5140,5.14,866
5141,5.141,912
5142,5.142,1008
5143,5.143,922
5144,5.144,847
5145,5.145,867
5146,5.146,899
5147,5.147,927
5148,5.148,920
5149,5.149,823
5150,5.15,829
5151,5.151,899
5152,5.152,889
5153,5.153,883
5154,5.154,903
5155,5.155,902
5156,5.156,931
5157,5.157,862
5158,5.158,858
5159,5.159,853
5160,5.16,857
5161,5.161,889
5162,5.162,921
5163,5.163,886
5164,5.164,866
5165,5.165,880
5166,5.166,862
5167,5.167,895
5168,5.168,887
5169,5.169,816
5170,5.17,831
5171,5.171,859
5172,5.172,851
5173,5.173,863
5174,5.174,897
5175,5.175,851
5176,5.176,810
5177,5.177,806
5178,5.178,898
5179,5.179,1011
5180,5.18,985
5181,5.181,925
5182,5.182,912
5183,5.183,916
5184,5.184,881
5185,5.185,825
5186,5.186,850
5187,5.187,876
5188,5.188,871
5189,5.189,869
5190,5.19,890
5191,5.191,839
5192,5.192,846
5193,5.193,914
5194,5.194,925
5195,5.195,894
5196,5.196,901
5197,5.197,871
5198,5.198,864
5199,5.199,838
5200,5.2,821
5201,5.201,886
5202,5.202,944
5203,5.203,899
5204,5.204,857
5205,5.205,855
5206,5.206,902
5207,5.207,946
5208,5.208,887
5209,5.209,870
5210,5.21,886
5211,5.211,869
5212,5.212,878
5213,5.213,878
5214,5.214,882
5215,5.215,902
5216,5.216,891
5217,5.217,853
5218,5.218,849
5219,5.219,899
5220,5.22,903
5221,5.221,889
5222,5.222,834
5223,5.223,734
5224,5.224,770
5225,5.225,875
5226,5.226,986
5227,5.227,989
5228,5.228,927
5229,5.229,907
5230,5.23,969
5231,5.231,966
5232,5.232,912
5233,5.233,819
5234,5.234,751
5235,5.235,765
5236,5.236,768
5237,5.237,825
5238,5.238,883
5239,5.239,869
5240,5.24,912
5241,5.241,967
5242,5.242,912
5243,5.243,901
5244,5.244,906
5245,5.245,903
5246,5.246,850
5247,5.247,846
5248,5.248,915
5249,5.249,914
5250,5.25,890
5251,5.251,859
5252,5.252,881
5253,5.253,895
5254,5.254,935
5255,5.255,880
5256,5.256,816
5257,5.257,841
5258,5.258,883
5259,5.259,913
5260,5.26,939
5261,5.261,953
5262,5.262,889
5263,5.263,815
5264,5.264,813
5265,5.265,815
5266,5.266,885
5267,5.267,926
5268,5.268,914
5269,5.269,899
5270,5.27,847
5271,5.271,851
5272,5.272,909
5273,5.273,933
5274,5.274,928
5275,5.275,919
5276,5.276,871
5277,5.277,939
5278,5.278,895
5279,5.279,816
5280,5.28,821
5281,5.281,784
5282,5.282,839
5283,5.283,944
5284,5.284,995
5285,5.285,994
5286,5.286,962
5287,5.287,836
5288,5.288,849
5289,5.289,880
5290,5.29,844
5291,5.291,847
5292,5.292,848
5293,5.293,884
5294,5.294,946
5295,5.295,958
5296,5.296,909
5297,5.297,863
5298,5.298,833
5299,5.299,791
5300,5.3,742
5301,5.301,831
5302,5.302,899
5303,5.303,875
5304,5.304,752
5305,5.305,729
5306,5.306,883
5307,5.307,894
5308,5.308,861
5309,5.309,888
5310,5.31,898
5311,5.311,969
5312,5.312,1008
5313,5.313,965
5314,5.314,871
5315,5.315,835
5316,5.316,960
5317,5.317,965
5318,5.318,837
5319,5.319,816
5320,5.32,918
5321,5.321,976
5322,5.322,970
5323,5.323,860
5324,5.324,773
5325,5.325,777
5326,5.326,834
5327,5.327,880
5328,5.328,858
5329,5.329,865
5330,5.33,859
5331,5.331,838
5332,5.332,845
5333,5.333,899
5334,5.334,1023
5335,5.335,1082
5336,5.336,1040
5337,5.337,862
5338,5.338,687
5339,5.339,688
5340,5.34,797
5341,5.341,845
5342,5.342,871
5343,5.343,880
5344,5.344,849
5345,5.345,838
5346,5.346,858
5347,5.347,881
5348,5.348,923
5349,5.349,919
5350,5.35,912
5351,5.351,940
5352,5.352,943
5353,5.353,887
5354,5.354,848
5355,5.355,885
5356,5.356,907
5357,5.357,881
5358,5.358,950
5359,5.359,945
5360,5.36,878
5361,5.361,795
5362,5.362,817
5363,5.363,867
5364,5.364,841
5365,5.365,842
5366,5.366,875
5367,5.367,874
5368,5.368,863
5369,5.369,823
5370,5.37,834
5371,5.371,865
5372,5.372,864
5373,5.373,848
5374,5.374,881
5375,5.375,919
5376,5.376,937
5377,5.377,880
5378,5.378,841
5379,5.379,875
5380,5.38,851
5381,5.381,922
5382,5.382,907
5383,5.383,859
5384,5.384,880
5385,5.385,875
5386,5.386,912
5387,5.387,959
5388,5.388,987
5389,5.389,946
5390,5.39,895
5391,5.391,845
5392,5.392,816
5393,5.393,822
5394,5.394,833
5395,5.395,891
5396,5.396,944
5397,5.397,1015
5398,5.398,999
5399,5.399,897
5400,5.4,765
5401,5.401,714
5402,5.402,719
5403,5.403,863
5404,5.404,925
5405,5.405,897
5406,5.406,905
5407,5.407,853
5408,5.408,880
5409,5.409,879
5410,5.41,950
5411,5.411,960
5412,5.412,919
5413,5.413,880
5414,5.414,895
5415,5.415,930
5416,5.416,873
5417,5.417,742
5418,5.418,618
5419,5.419,704
5420,5.42,965
5421,5.421,1019
5422,5.422,961
5423,5.423,901
5424,5.424,853
5425,5.425,833
5426,5.426,858
5427,5.427,915
5428,5.428,960
5429,5.429,929
5430,5.43,894
5431,5.431,983
5432,5.432,1049
5433,5.433,1020
5434,5.434,890
5435,5.435,797
5436,5.436,748
5437,5.437,726
5438,5.438,784
5439,5.439,810
5440,5.44,799
5441,5.441,839
5442,5.442,963
5443,5.443,1032
5444,5.444,1052
5445,5.445,930
5446,5.446,770
5447,5.447,747
5448,5.448,813
5449,5.449,880
5450,5.45,827
5451,5.451,813
5452,5.452,849
5453,5.453,882
5454,5.454,919
5455,5.455,912
5456,5.456,944
5457,5.457,886
5458,5.458,923
5459,5.459,894
5460,5.46,874
5461,5.461,910
5462,5.462,922
5463,5.463,937
5464,5.464,902
5465,5.465,912
5466,5.466,809
5467,5.467,807
5468,5.468,768
5469,5.469,864
5470,5.47,1008
5471,5.471,1010
5472,5.472,958
5473,5.473,910
5474,5.474,969
5475,5.475,819
5476,5.476,747
5477,5.477,743
5478,5.478,798
5479,5.479,825
5480,5.48,759
5481,5.481,795
5482,5.482,909
5483,5.483,925
5484,5.484,877
5485,5.485,892
5486,5.486,929
5487,5.487,900
5488,5.488,907
5489,5.489,912
5490,5.49,855
5491,5.491,894
5492,5.492,915
5493,5.493,928
5494,5.494,893
5495,5.495,799
5496,5.496,833
5497,5.497,865
5498,5.498,874
5499,5.499,878
5500,5.5,881
5501,5.501,847
5502,5.502,832
5503,5.503,864
5504,5.504,879
5505,5.505,889
5506,5.506,883
5507,5.507,896
5508,5.508,919
5509,5.509,923
5510,5.51,883
5511,5.511,833
5512,5.512,862
5513,5.513,881
5514,5.514,899
5515,5.515,953
5516,5.516,1011
5517,5.517,1020
5518,5.518,979
5519,5.519,791
5520,5.52,731
5521,5.521,737
5522,5.522,752
5523,5.523,816
5524,5.524,912
5525,5.525,927
5526,5.526,906
5527,5.527,850
5528,5.528,850
5529,5.529,848
5530,5.53,873
5531,5.531,889
5532,5.532,909
5533,5.533,934
5534,5.534,957
5535,5.535,931
5536,5.536,881
5537,5.537,815
5538,5.538,890
5539,5.539,912
5540,5.54,851
5541,5.541,835
5542,5.542,773
5543,5.543,851
5544,5.544,869
5545,5.545,930
5546,5.546,1013
5547,5.547,1009
5548,5.548,906
5549,5.549,813
5550,5.55,737
5551,5.551,688
5552,5.552,839
5553,5.553,1023
5554,5.554,1008
5555,5.555,897
5556,5.556,837
5557,5.557,874
5558,5.558,858
5559,5.559,850
5560,5.56,847
5561,5.561,866
5562,5.562,880
5563,5.563,894
5564,5.564,944
5565,5.565,959
5566,5.566,912
5567,5.567,803
5568,5.568,831
5569,5.569,883
5570,5.57,863
5571,5.571,835
5572,5.572,937
5573,5.573,931
5574,5.574,931
5575,5.575,890
5576,5.576,875
5577,5.577,848
5578,5.578,842
5579,5.579,871
5580,5.58,895
5581,5.581,883
5582,5.582,843
5583,5.583,784
5584,5.584,832
5585,5.585,849
5586,5.586,881
5587,5.587,895
5588,5.588,915
5589,5.589,991
5590,5.59,976
5591,5.591,895
5592,5.592,830
5593,5.593,869
5594,5.594,919
5595,5.595,886
5596,5.596,948
5597,5.597,950
5598,5.598,941
5599,5.599,807
5600,5.6,823
5601,5.601,880
5602,5.602,819
5603,5.603,810
5604,5.604,755
5605,5.605,786
5606,5.606,835
5607,5.607,903
5608,5.608,956
5609,5.609,956
5610,5.61,911
5611,5.611,951
5612,5.612,1023
5613,5.613,943
5614,5.614,851
5615,5.615,849
5616,5.616,784
5617,5.617,797
5618,5.618,941
5619,5.619,939
5620,5.62,986
5621,5.621,897
5622,5.622,970
5623,5.623,880
5624,5.624,783
5625,5.625,783
5626,5.626,815
5627,5.627,865
5628,5.628,951
5629,5.629,979
5630,5.63,1005
5631,5.631,933
5632,5.632,848
5633,5.633,722
5634,5.634,763
5635,5.635,825
5636,5.636,825
5637,5.637,854
5638,5.638,870
5639,5.639,848
5640,5.64,802
5641,5.641,907
5642,5.642,974
5643,5.643,1014
5644,5.644,1013
5645,5.645,937
5646,5.646,848
5647,5.647,853
5648,5.648,752
5649,5.649,722
5650,5.65,822
5651,5.651,880
5652,5.652,895
5653,5.653,896
5654,5.654,935
5655,5.655,919
5656,5.656,902
5657,5.657,896
5658,5.658,907
5659,5.659,971
5660,5.66,962
5661,5.661,837
5662,5.662,802
5663,5.663,871
5664,5.664,919
5665,5.665,917
5666,5.666,846
5667,5.667,841
5668,5.668,798
5669,5.669,757
5670,5.67,855
5671,5.671,912
5672,5.672,903
5673,5.673,909
5674,5.674,917
5675,5.675,937
5676,5.676,926
5677,5.677,892
5678,5.678,816
5679,5.679,757
5680,5.68,802
5681,5.681,883
5682,5.682,937
5683,5.683,975
5684,5.684,882
5685,5.685,816
5686,5.686,785
5687,5.687,871
5688,5.688,1055
5689,5.689,1039
5690,5.69,896
5691,5.691,896
5692,5.692,971
5693,5.693,880
5694,5.694,720
5695,5.695,609
5696,5.696,832
5697,5.697,912
5698,5.698,895
5699,5.699,944
5700,5.7,963
5701,5.701,1008
5702,5.702,916
5703,5.703,748
5704,5.704,719
5705,5.705,828
5706,5.706,1045
5707,5.707,1079
5708,5.708,899
5709,5.709,671
5710,5.71,733
5711,5.711,807
5712,5.712,873
5713,5.713,928
5714,5.714,928
5715,5.715,881
5716,5.716,849
5717,5.717,816
5718,5.718,835
5719,5.719,858
5720,5.72,880
5721,5.721,919
5722,5.722,911
5723,5.723,918
5724,5.724,923
5725,5.725,990
5726,5.726,973
5727,5.727,858
5728,5.728,755
5729,5.729,743
5730,5.73,805
5731,5.731,884
5732,5.732,949
5733,5.733,947
5734,5.734,916
5735,5.735,903
5736,5.736,1008
5737,5.737,910
5738,5.738,890
5739,5.739,879
5740,5.74,891
5741,5.741,847
5742,5.742,829
5743,5.743,929
5744,5.744,922
5745,5.745,885
5746,5.746,788
5747,5.747,774
5748,5.748,899
5749,5.749,878
5750,5.75,866
5751,5.751,883
5752,5.752,906
5753,5.753,891
5754,5.754,829
5755,5.755,870
5756,5.756,907
5757,5.757,994
5758,5.758,991
5759,5.759,896
5760,5.76,759
5761,5.761,784
5762,5.762,813
5763,5.763,837
5764,5.764,862
5765,5.765,888
5766,5.766,893
5767,5.767,866
5768,5.768,784
5769,5.769,832
5770,5.77,922
5771,5.771,941
5772,5.772,917
5773,5.773,877
5774,5.774,901
5775,5.775,925
5776,5.776,946
5777,5.777,923
5778,5.778,903
5779,5.779,786
5780,5.78,926
5781,5.781,953
5782,5.782,864
5783,5.783,785
5784,5.784,778
5785,5.785,871
5786,5.786,887
5787,5.787,879
5788,5.788,869
5789,5.789,825
5790,5.79,875
5791,5.791,951
5792,5.792,947
5793,5.793,878
5794,5.794,823
5795,5.795,889
5796,5.796,881
5797,5.797,891
5798,5.798,843
5799,5.799,847
5800,5.8,827
5801,5.801,859
5802,5.802,919
5803,5.803,880
5804,5.804,875
5805,5.805,837
5806,5.806,822
5807,5.807,839
5808,5.808,915
5809,5.809,894
5810,5.81,842
5811,5.811,883
5812,5.812,906
5813,5.813,946
5814,5.814,924
5815,5.815,918
5816,5.816,880
5817,5.817,848
5818,5.818,866
5819,5.819,863
5820,5.82,838
5821,5.821,833
5822,5.822,862
5823,5.823,852
5824,5.824,856
5825,5.825,898
5826,5.826,894
5827,5.827,924
5828,5.828,927
5829,5.829,914
5830,5.83,910
5831,5.831,906
5832,5.832,896
5833,5.833,887
5834,5.834,885
5835,5.835,887
5836,5.836,869
5837,5.837,878
5838,5.838,847
5839,5.839,831
5840,5.84,866
5841,5.841,895
5842,5.842,907
5843,5.843,869
5844,5.844,857
5845,5.845,801
5846,5.846,823
5847,5.847,863
5848,5.848,942
5849,5.849,942
5850,5.85,880
5851,5.851,855
5852,5.852,862
5853,5.853,885
5854,5.854,926
5855,5.855,941
5856,5.856,899
5857,5.857,880
5858,5.858,853
5859,5.859,865
5860,5.86,848
5861,5.861,835
5862,5.862,842
5863,5.863,848
5864,5.864,879
5865,5.865,955
5866,5.866,1038
5867,5.867,1043
5868,5.868,998
5869,5.869,853
5870,5.87,751
5871,5.871,721
5872,5.872,832
5873,5.873,880
5874,5.874,897
5875,5.875,912
5876,5.876,875
5877,5.877,819
5878,5.878,829
5879,5.879,844
5880,5.88,842
5881,5.881,864
5882,5.882,831
5883,5.883,871
5884,5.884,898
5885,5.885,926
5886,5.886,922
5887,5.887,915
5888,5.888,906
5889,5.889,870
5890,5.89,834
5891,5.891,795
5892,5.892,835
5893,5.893,877
5894,5.894,912
5895,5.895,929
5896,5.896,902
5897,5.897,890
5898,5.898,886
5899,5.899,871
5900,5.9,883
5901,5.901,755
5902,5.902,880
5903,5.903,873
5904,5.904,850
5905,5.905,880
5906,5.906,915
5907,5.907,967
5908,5.908,944
5909,5.909,881
5910,5.91,808
5911,5.911,761
5912,5.912,801
5913,5.913,886
5914,5.914,943
5915,5.915,975
5916,5.916,1008
5917,5.917,976
5918,5.918,869
5919,5.919,768
5920,5.92,808
5921,5.921,807
5922,5.922,843
5923,5.923,840
5924,5.924,838
5925,5.925,830
5926,5.926,853
5927,5.927,991
5928,5.928,1042
5929,5.929,922
5930,5.93,848
5931,5.931,785
5932,5.932,826
5933,5.933,867
5934,5.934,815
5935,5.935,800
5936,5.936,896
5937,5.937,919
5938,5.938,841
5939,5.939,869
5940,5.94,688
5941,5.941,903
5942,5.942,891
5943,5.943,900
5944,5.944,853
5945,5.945,790
5946,5.946,863
5947,5.947,912
5948,5.948,914
5949,5.949,942
5950,5.95,933
5951,5.951,819
5952,5.952,816
5953,5.953,830
5954,5.954,895
5955,5.955,965
5956,5.956,945
5957,5.957,880
5958,5.958,863
5959,5.959,831
5960,5.96,817
5961,5.961,820
5962,5.962,852
5963,5.963,943
5964,5.964,1011
5965,5.965,1023
5966,5.966,990
5967,5.967,819
5968,5.968,805
5969,5.969,866
5970,5.97,915
5971,5.971,848
5972,5.972,769
5973,5.973,866
5974,5.974,878
5975,5.975,848
5976,5.976,871
5977,5.977,802
5978,5.978,774
5979,5.979,1041
5980,5.98,931
5981,5.981,943
5982,5.982,941
5983,5.983,943
5984,5.984,936
5985,5.985,848
5986,5.986,768
5987,5.987,853
5988,5.988,859
5989,5.989,903
5990,5.99,890
5991,5.991,848
5992,5.992,900
5993,5.993,860
5994,5.994,820
5995,5.995,882
5996,5.996,947
5997,5.997,963
5998,5.998,944
5999,5.999,912
6000,6.0,862
6001,6.001,877
6002,6.002,838
6003,6.003,853
6004,6.004,870
6005,6.005,922
6006,6.006,911
6007,6.007,842
6008,6.008,797
6009,6.009,848
6010,6.01,978
6011,6.011,961
6012,6.012,816
6013,6.013,678
6014,6.014,848
6015,6.015,820
6016,6.016,876
6017,6.017,970
6018,6.018,971
6019,6.019,855
6020,6.02,867
6021,6.021,834
6022,6.022,889
6023,6.023,911
6024,6.024,912
6025,6.025,848
6026,6.026,742
6027,6.027,813
6028,6.028,911
6029,6.029,935
6030,6.03,915
6031,6.031,873
6032,6.032,865
6033,6.033,903
6034,6.034,948
6035,6.035,973
6036,6.036,953
6037,6.037,861
6038,6.038,816
6039,6.039,847
6040,6.04,879
6041,6.041,843
6042,6.042,878
6043,6.043,945
6044,6.044,1009
6045,6.045,1009
6046,6.046,914
6047,6.047,848
6048,6.048,798
6049,6.049,771
6050,6.05,846
6051,6.051,883
6052,6.052,838
6053,6.053,771
6054,6.054,816
6055,6.055,929
6056,6.056,967
6057,6.057,954
6058,6.058,893
6059,6.059,946
6060,6.06,897
6061,6.061,851
6062,6.062,814
6063,6.063,845
6064,6.064,827
6065,6.065,771
6066,6.066,863
6067,6.067,944
6068,6.068,1050
6069,6.069,940
6070,6.07,849
6071,6.071,880
6072,6.072,917
6073,6.073,891
6074,6.074,861
6075,6.075,821
6076,6.076,842
6077,6.077,881
6078,6.078,907
6079,6.079,930
6080,6.08,923
6081,6.081,913
6082,6.082,848
6083,6.083,846
6084,6.084,912
6085,6.085,976
6086,6.086,931
6087,6.087,795
6088,6.088,703
6089,6.089,767
6090,6.09,855
6091,6.091,875
6092,6.092,894
6093,6.093,919
6094,6.094,893
6095,6.095,961
6096,6.096,1008
6097,6.097,929
6098,6.098,801
6099,6.099,746
6100,6.1,793
6101,6.101,898
6102,6.102,941
6103,6.103,931
6104,6.104,939
6105,6.105,882
6106,6.106,905
6107,6.107,925
6108,6.108,885
6109,6.109,798
6110,6.11,784
6111,6.111,832
6112,6.112,895
6113,6.113,913
6114,6.114,899
6115,6.115,915
6116,6.116,915
6117,6.117,922
6118,6.118,927
6119,6.119,867
6120,6.12,830
6121,6.121,810
6122,6.122,769
6123,6.123,789
6124,6.124,839
6125,6.125,991
6126,6.126,1079
6127,6.127,1023
6128,6.128,901
6129,6.129,906
6130,6.13,925
6131,6.131,912
6132,6.132,809
6133,6.133,803
6134,6.134,819
6135,6.135,860
6136,6.136,867
6137,6.137,862
6138,6.138,848
6139,6.139,880
6140,6.14,901
6141,6.141,851
6142,6.142,864
6143,6.143,893
6144,6.144,815
6145,6.145,789
6146,6.146,825
6147,6.147,847
6148,6.148,871
6149,6.149,943
6150,6.15,1006
6151,6.151,1036
6152,6.152,897
6153,6.153,821
6154,6.154,821
6155,6.155,826
6156,6.156,896
6157,6.157,922
6158,6.158,921
6159,6.159,912
6160,6.16,950
6161,6.161,935
6162,6.162,914
6163,6.163,882
6164,6.164,886
6165,6.165,865
6166,6.166,834
6167,6.167,847
6168,6.168,864
6169,6.169,820
6170,6.17,771
6171,6.171,794
6172,6.172,875
6173,6.173,912
6174,6.174,950
6175,6.175,897
6176,6.176,866
6177,6.177,865
6178,6.178,853
6179,6.179,846
6180,6.18,839
6181,6.181,866
6182,6.182,907
6183,6.183,969
6184,6.184,975
6185,6.185,898
6186,6.186,845
6187,6.187,854
6188,6.188,899
6189,6.189,867
6190,6.19,897
6191,6.191,851
6192,6.192,915
6193,6.193,930
6194,6.194,851
6195,6.195,829
6196,6.196,815
6197,6.197,920
6198,6.198,973
6199,6.199,896
6200,6.2,898
6201,6.201,891
6202,6.202,848
6203,6.203,808
6204,6.204,827
6205,6.205,874
6206,6.206,880
6207,6.207,901
6208,6.208,912
6209,6.209,878
6210,6.21,817
6211,6.211,819
6212,6.212,811
6213,6.213,817
6214,6.214,883
6215,6.215,961
6216,6.216,979
6217,6.217,939
6218,6.218,882
6219,6.219,957
6220,6.22,1046
6221,6.221,951
6222,6.222,798
6223,6.223,721
6224,6.224,784
6225,6.225,838
6226,6.226,870
6227,6.227,874
6228,6.228,862
6229,6.229,900
6230,6.23,895
6231,6.231,928
6232,6.232,973
6233,6.233,960
6234,6.234,896
6235,6.235,816
6236,6.236,802
6237,6.237,784
6238,6.238,832
6239,6.239,848
6240,6.24,865
6241,6.241,944
6242,6.242,976
6243,6.243,913
6244,6.244,817
6245,6.245,741
6246,6.246,751
6247,6.247,802
6248,6.248,869
6249,6.249,1005
6250,6.25,1070
6251,6.251,973
6252,6.252,865
6253,6.253,819
6254,6.254,855
6255,6.255,925
6256,6.256,933
6257,6.257,926
6258,6.258,893
6259,6.259,880
6260,6.26,855
6261,6.261,830
6262,6.262,864
6263,6.263,859
6264,6.264,878
6265,6.265,865
6266,6.266,842
6267,6.267,852
6268,6.268,861
6269,6.269,868
6270,6.27,912
6271,6.271,901
6272,6.272,929
6273,6.273,867
6274,6.274,878
6275,6.275,978
6276,6.276,855
6277,6.277,816
6278,6.278,800
6279,6.279,931
6280,6.28,991
6281,6.281,912
6282,6.282,831
6283,6.283,837
6284,6.284,874
6285,6.285,894
6286,6.286,937
6287,6.287,941
6288,6.288,880
6289,6.289,802
6290,6.29,844
6291,6.291,877
6292,6.292,818
6293,6.293,815
6294,6.294,851
6295,6.295,915
6296,6.296,959
6297,6.297,966
6298,6.298,914
6299,6.299,865
6300,6.3,914
6301,6.301,907
6302,6.302,862
6303,6.303,842
6304,6.304,879
6305,6.305,880
6306,6.306,861
6307,6.307,880
6308,6.308,880
6309,6.309,906
6310,6.31,901
6311,6.311,944
6312,6.312,843
6313,6.313,705
6314,6.314,769
6315,6.315,915
6316,6.316,882
6317,6.317,818
6318,6.318,879
6319,6.319,878
6320,6.32,894
6321,6.321,884
6322,6.322,917
6323,6.323,1015
6324,6.324,990
6325,6.325,907
6326,6.326,815
6327,6.327,768
6328,6.328,835
6329,6.329,908
6330,6.33,944
6331,6.331,923
6332,6.332,842
6333,6.333,879
6334,6.334,857
6335,6.335,859
6336,6.336,882
6337,6.337,875
6338,6.338,843
6339,6.339,862
6340,6.34,876
6341,6.341,864
6342,6.342,881
6343,6.343,906
6344,6.344,948
6345,6.345,957
6346,6.346,934
6347,6.347,839
6348,6.348,813
6349,6.349,855
6350,6.35,909
6351,6.351,930
6352,6.352,914
6353,6.353,894
6354,6.354,871
6355,6.355,839
6356,6.356,807
6357,6.357,821
6358,6.358,880
6359,6.359,884
6360,6.36,858
6361,6.361,879
6362,6.362,896
6363,6.363,851
6364,6.364,823
6365,6.365,827
6366,6.366,813
6367,6.367,850
6368,6.368,935
6369,6.369,966
6370,6.37,916
6371,6.371,884
6372,6.372,887
6373,6.373,930
6374,6.374,990
6375,6.375,929
6376,6.376,864
6377,6.377,892
6378,6.378,910
6379,6.379,869
6380,6.38,828
6381,6.381,802
6382,6.382,803
6383,6.383,867
6384,6.384,933
6385,6.385,955
6386,6.386,914
6387,6.387,818
6388,6.388,752
6389,6.389,829
6390,6.39,929
6391,6.391,881
6392,6.392,808
6393,6.393,869
6394,6.394,880
6395,6.395,998
6396,6.396,1038
6397,6.397,993
6398,6.398,937
6399,6.399,799
6400,6.4,819
6401,6.401,847
6402,6.402,859
6403,6.403,843
6404,6.404,866
6405,6.405,848
6406,6.406,842
6407,6.407,887
6408,6.408,877
6409,6.409,926
6410,6.41,848
6411,6.411,812
6412,6.412,846
6413,6.413,848
6414,6.414,893
6415,6.415,935
6416,6.416,928
6417,6.417,894
6418,6.418,902
6419,6.419,929
6420,6.42,959
6421,6.421,929
6422,6.422,857
6423,6.423,771
6424,6.424,807
6425,6.425,944
6426,6.426,986
6427,6.427,919
6428,6.428,771
6429,6.429,780
6430,6.43,899
6431,6.431,892
6432,6.432,853
6433,6.433,874
6434,6.434,889
6435,6.435,928
6436,6.436,931
6437,6.437,871
6438,6.438,864
6439,6.439,867
6440,6.44,880
6441,6.441,922
6442,6.442,893
6443,6.443,839
6444,6.444,846
6445,6.445,837
6446,6.446,844
6447,6.447,859
6448,6.448,892
6449,6.449,894
6450,6.45,867
6451,6.451,848
6452,6.452,817
6453,6.453,900
6454,6.454,935
6455,6.455,912
6456,6.456,878
6457,6.457,904
6458,6.458,949
6459,6.459,959
6460,6.46,894
6461,6.461,826
6462,6.462,835
6463,6.463,850
6464,6.464,839
6465,6.465,831
6466,6.466,871
6467,6.467,904
6468,6.468,894
6469,6.469,892
6470,6.47,885
6471,6.471,891
6472,6.472,899
6473,6.473,854
6474,6.474,826
6475,6.475,879
6476,6.476,894
6477,6.477,912
6478,6.478,896
6479,6.479,919
6480,6.48,944
6481,6.481,991
6482,6.482,1010
6483,6.483,841
6484,6.484,729
6485,6.485,774
6486,6.486,783
6487,6.487,805
6488,6.488,886
6489,6.489,960
6490,6.49,1008
6491,6.491,996
6492,6.492,913
6493,6.493,848
6494,6.494,816
6495,6.495,822
6496,6.496,839
6497,6.497,827
6498,6.498,821
6499,6.499,890
6500,6.5,890
6501,6.501,848
6502,6.502,777
6503,6.503,811
6504,6.504,879
6505,6.505,950
6506,6.506,961
6507,6.507,904
6508,6.508,918
6509,6.509,943
6510,6.51,973
6511,6.511,912
6512,6.512,857
6513,6.513,845
6514,6.514,898
6515,6.515,975
6516,6.516,906
6517,6.517,853
6518,6.518,746
6519,6.519,834
6520,6.52,845
6521,6.521,799
6522,6.522,820
6523,6.523,878
6524,6.524,908
6525,6.525,913
6526,6.526,922
6527,6.527,863
6528,6.528,873
6529,6.529,909
6530,6.53,875
6531,6.531,870
6532,6.532,882
6533,6.533,883
6534,6.534,921
6535,6.535,927
6536,6.536,891
6537,6.537,863
6538,6.538,868
6539,6.539,882
6540,6.54,883
6541,6.541,788
6542,6.542,839
6543,6.543,918
6544,6.544,937
6545,6.545,880
6546,6.546,774
6547,6.547,804
6548,6.548,869
6549,6.549,822
6550,6.55,793
6551,6.551,786
6552,6.552,921
6553,6.553,1034
6554,6.554,1101
6555,6.555,1021
6556,6.556,866
6557,6.557,797
6558,6.558,802
6559,6.559,885
6560,6.56,869
6561,6.561,871
6562,6.562,880
6563,6.563,880
6564,6.564,875
6565,6.565,869
6566,6.566,852
6567,6.567,873
6568,6.568,890
6569,6.569,890
6570,6.57,923
6571,6.571,982
6572,6.572,965
6573,6.573,907
6574,6.574,765
6575,6.575,783
6576,6.576,915
6577,6.577,955
6578,6.578,903
6579,6.579,707
6580,6.58,630
6581,6.581,770
6582,6.582,919
6583,6.583,1010
6584,6.584,975
6585,6.585,928
6586,6.586,911
6587,6.587,863
6588,6.588,858
6589,6.589,935
6590,6.59,1008
6591,6.591,973
6592,6.592,853
6593,6.593,708
6594,6.594,725
6595,6.595,835
6596,6.596,851
6597,6.597,959
6598,6.598,1009
6599,6.599,1004
6600,6.6,974
6601,6.601,871
6602,6.602,814
6603,6.603,800
6604,6.604,838
6605,6.605,875
6606,6.606,873
6607,6.607,879
6608,6.608,943
6609,6.609,956
6610,6.61,896
6611,6.611,859
6612,6.612,720
6613,6.613,651
6614,6.614,753
6615,6.615,938
6616,6.616,953
6617,6.617,970
6618,6.618,946
6619,6.619,917
6620,6.62,857
6621,6.621,899
6622,6.622,918
6623,6.623,877
6624,6.624,878
6625,6.625,816
6626,6.626,814
6627,6.627,782
6628,6.628,857
6629,6.629,933
6630,6.63,961
6631,6.631,909
6632,6.632,848
6633,6.633,843
6634,6.634,938
6635,6.635,1019
6636,6.636,1057
6637,6.637,961
6638,6.638,828
6639,6.639,775
6640,6.64,825
6641,6.641,866
6642,6.642,881
6643,6.643,845
6644,6.644,818
6645,6.645,845
6646,6.646,887
6647,6.647,877
6648,6.648,831
6649,6.649,819
6650,6.65,874
6651,6.651,930
6652,6.652,937
6653,6.653,922
6654,6.654,974
6655,6.655,963
6656,6.656,848
6657,6.657,801
6658,6.658,843
6659,6.659,858
6660,6.66,851
6661,6.661,879
6662,6.662,878
6663,6.663,874
6664,6.664,875
6665,6.665,876
6666,6.666,859
6667,6.667,875
6668,6.668,850
6669,6.669,845
6670,6.67,916
6671,6.671,987
6672,6.672,960
6673,6.673,862
6674,6.674,767
6675,6.675,753
6676,6.676,858
6677,6.677,912
6678,6.678,959
6679,6.679,898
6680,6.68,887
6681,6.681,880
6682,6.682,861
6683,6.683,883
6684,6.684,899
6685,6.685,917
6686,6.686,895
6687,6.687,880
6688,6.688,898
6689,6.689,866
6690,6.69,887
6691,6.691,880
6692,6.692,870
6693,6.693,849
6694,6.694,879
6695,6.695,915
6696,6.696,929
6697,6.697,870
6698,6.698,838
6699,6.699,867
6700,6.7,882
6701,6.701,819
6702,6.702,820
6703,6.703,846
6704,6.704,873
6705,6.705,927
6706,6.706,884
6707,6.707,887
6708,6.708,935
6709,6.709,930
6710,6.71,871
6711,6.711,827
6712,6.712,832
6713,6.713,868
6714,6.714,871
6715,6.715,849
6716,6.716,849
6717,6.717,879
6718,6.718,894
6719,6.719,877
6720,6.72,854
6721,6.721,901
6722,6.722,913
6723,6.723,905
6724,6.724,890
6725,6.725,878
6726,6.726,880
6727,6.727,901
6728,6.728,880
6729,6.729,851
6730,6.73,838
6731,6.731,783
6732,6.732,808
6733,6.733,878
6734,6.734,958
6735,6.735,959
6736,6.736,912
6737,6.737,862
6738,6.738,827
6739,6.739,822
6740,6.74,912
6741,6.741,997
6742,6.742,950
6743,6.743,914
6744,6.744,901
6745,6.745,924
6746,6.746,897
6747,6.747,821
6748,6.748,836
6749,6.749,783
6750,6.75,760
6751,6.751,763
6752,6.752,756
6753,6.753,897
6754,6.754,1046
6755,6.755,982
6756,6.756,896
6757,6.757,871
6758,6.758,866
6759,6.759,817
6760,6.76,797
6761,6.761,866
6762,6.762,946
6763,6.763,907
6764,6.764,879
6765,6.765,983
6766,6.766,974
6767,6.767,890
6768,6.768,819
6769,6.769,801
6770,6.77,747
6771,6.771,804
6772,6.772,903
6773,6.773,933
6774,6.774,947
6775,6.775,928
6776,6.776,947
6777,6.777,945
6778,6.778,862
6779,6.779,847
6780,6.78,909
6781,6.781,990
6782,6.782,990
6783,6.783,959
6784,6.784,827
6785,6.785,803
6786,6.786,853
6787,6.787,848
6788,6.788,920
6789,6.789,912
6790,6.79,893
6791,6.791,847
6792,6.792,816
6793,6.793,816
6794,6.794,811
6795,6.795,833
6796,6.796,860
6797,6.797,880
6798,6.798,917
6799,6.799,851
6800,6.8,890
6801,6.801,928
6802,6.802,848
6803,6.803,899
6804,6.804,885
6805,6.805,895
6806,6.806,912
6807,6.807,966
6808,6.808,881
6809,6.809,839
6810,6.81,781
6811,6.811,788
6812,6.812,821
6813,6.813,893
6814,6.814,913
6815,6.815,849
6816,6.816,816
6817,6.817,875
6818,6.818,976
6819,6.819,980
6820,6.82,858
6821,6.821,850
6822,6.822,810
6823,6.823,837
6824,6.824,799
6825,6.825,877
6826,6.826,948
6827,6.827,1037
6828,6.828,954
6829,6.829,896
6830,6.83,862
6831,6.831,849
6832,6.832,876
6833,6.833,912
6834,6.834,912
6835,6.835,895
6836,6.836,880
6837,6.837,882
6838,6.838,865
6839,6.839,901
6840,6.84,888
6841,6.841,842
6842,6.842,853
6843,6.843,865
6844,6.844,859
6845,6.845,848
6846,6.846,798
6847,6.847,848
6848,6.848,891
6849,6.849,898
6850,6.85,905
6851,6.851,894
6852,6.852,938
6853,6.853,848
6854,6.854,871
6855,6.855,846
6856,6.856,879
6857,6.857,897
6858,6.858,826
6859,6.859,799
6860,6.86,848
6861,6.861,897
6862,6.862,902
6863,6.863,803
6864,6.864,791
6865,6.865,939
6866,6.866,1047
6867,6.867,1066
6868,6.868,1088
6869,6.869,1036
6870,6.87,789
6871,6.871,641
6872,6.872,784
6873,6.873,815
6874,6.874,848
6875,6.875,880
6876,6.876,886
6877,6.877,907
6878,6.878,880
6879,6.879,874
6880,6.88,816
6881,6.881,823
6882,6.882,850
6883,6.883,925
6884,6.884,911
6885,6.885,859
6886,6.886,895
6887,6.887,911
6888,6.888,912
6889,6.889,897
6890,6.89,849
6891,6.891,881
6892,6.892,909
6893,6.893,878
6894,6.894,835
6895,6.895,823
6896,6.896,882
6897,6.897,969
6898,6.898,961
6899,6.899,850
6900,6.9,807
6901,6.901,838
6902,6.902,892
6903,6.903,967
6904,6.904,967
6905,6.905,934
6906,6.906,839
6907,6.907,796
6908,6.908,811
6909,6.909,863
6910,6.91,862
6911,6.911,973
6912,6.912,1089
6913,6.913,960
6914,6.914,848
6915,6.915,825
6916,6.916,814
6917,6.917,882
6918,6.918,896
6919,6.919,880
6920,6.92,898
6921,6.921,874
6922,6.922,828
6923,6.923,783
6924,6.924,773
6925,6.925,822
6926,6.926,873
6927,6.927,898
6928,6.928,909
6929,6.929,896
6930,6.93,923
6931,6.931,938
6932,6.932,912
6933,6.933,848
6934,6.934,816
6935,6.935,855
6936,6.936,849
6937,6.937,863
6938,6.938,941
6939,6.939,873
6940,6.94,805
6941,6.941,845
6942,6.942,893
6943,6.943,895
6944,6.944,861
6945,6.945,890
6946,6.946,945
6947,6.947,989
6948,6.948,983
6949,6.949,946
6950,6.95,912
6951,6.951,899
6952,6.952,908
6953,6.953,846
6954,6.954,805
6955,6.955,726
6956,6.956,785
6957,6.957,867
6958,6.958,886
6959,6.959,898
6960,6.96,877
6961,6.961,822
6962,6.962,802
6963,6.963,859
6964,6.964,895
6965,6.965,891
6966,6.966,962
6967,6.967,927
6968,6.968,894
6969,6.969,819
6970,6.97,801
6971,6.971,821
6972,6.972,816
6973,6.973,841
6974,6.974,899
6975,6.975,1019
6976,6.976,945
6977,6.977,854
6978,6.978,871
6979,6.979,896
6980,6.98,890
6981,6.981,838
6982,6.982,845
6983,6.983,883
6984,6.984,909
6985,6.985,874
6986,6.986,891
6987,6.987,930
6988,6.988,969
6989,6.989,962
6990,6.99,967
6991,6.991,944
6992,6.992,810
6993,6.993,750
6994,6.994,784
6995,6.995,846
6996,6.996,890
6997,6.997,948
6998,6.998,944
6999,6.999,944
7000,7.0,914
7001,7.001,865
7002,7.002,899
7003,7.003,919
7004,7.004,857
7005,7.005,790
7006,7.006,765
7007,7.007,775
7008,7.008,822
7009,7.009,831
7010,7.01,899
7011,7.011,944
7012,7.012,947
7013,7.013,939
7014,7.014,929
7015,7.015,848
7016,7.016,865
7017,7.017,846
7018,7.018,775
7019,7.019,785
7020,7.02,897
7021,7.021,955
7022,7.022,912
7023,7.023,917
7024,7.024,949
7025,7.025,917
7026,7.026,854
7027,7.027,818
7028,7.028,785
7029,7.029,927
7030,7.03,934
7031,7.031,907
7032,7.032,854
7033,7.033,819
7034,7.034,838
7035,7.035,873
7036,7.036,933
7037,7.037,931
7038,7.038,951
7039,7.039,960
7040,7.04,960
7041,7.041,897
7042,7.042,874
7043,7.043,832
7044,7.044,859
7045,7.045,848
7046,7.046,897
7047,7.047,826
7048,7.048,763
7049,7.049,754
7050,7.05,787
7051,7.051,832
7052,7.052,815
7053,7.053,915
7054,7.054,991
7055,7.055,982
7056,7.056,907
7057,7.057,902
7058,7.058,917
7059,7.059,906
7060,7.06,848
7061,7.061,860
7062,7.062,882
7063,7.063,877
7064,7.064,867
7065,7.065,863
7066,7.066,794
7067,7.067,769
7068,7.068,806
7069,7.069,893
7070,7.07,899
7071,7.071,923
7072,7.072,918
7073,7.073,967
7074,7.074,1000
7075,7.075,918
7076,7.076,869
7077,7.077,862
7078,7.078,848
7079,7.079,857
7080,7.08,899
7081,7.081,956
7082,7.082,976
7083,7.083,944
7084,7.084,854
7085,7.085,827
7086,7.086,829
7087,7.087,827
7088,7.088,832
7089,7.089,830
7090,7.09,945
7091,7.091,1051
7092,7.092,810
7093,7.093,752
7094,7.094,901
7095,7.095,887
7096,7.096,864
7097,7.097,839
7098,7.098,812
7099,7.099,811
7100,7.1,877
7101,7.101,917
7102,7.102,1022
7103,7.103,1040
7104,7.104,982
7105,7.105,880
7106,7.106,741
7107,7.107,739
7108,7.108,741
7109,7.109,766
7110,7.11,869
7111,7.111,934
7112,7.112,979
7113,7.113,959
7114,7.114,891
7115,7.115,871
7116,7.116,856
7117,7.117,896
7118,7.118,938
7119,7.119,945
7120,7.12,981
7121,7.121,976
7122,7.122,955
7123,7.123,933
7124,7.124,861
7125,7.125,723
7126,7.126,644
7127,7.127,689
7128,7.128,831
7129,7.129,1097
7130,7.13,1046
7131,7.131,847
7132,7.132,800
7133,7.133,885
7134,7.134,871
7135,7.135,897
7136,7.136,896
7137,7.137,901
7138,7.138,915
7139,7.139,875
7140,7.14,868
7141,7.141,974
7142,7.142,1013
7143,7.143,1017
7144,7.144,704
7145,7.145,706
7146,7.146,862
7147,7.147,880
7148,7.148,908
7149,7.149,897
7150,7.15,902
7151,7.151,879
7152,7.152,861
7153,7.153,887
7154,7.154,897
7155,7.155,871
7156,7.156,837
7157,7.157,843
7158,7.158,891
7159,7.159,972
7160,7.16,944
7161,7.161,869
7162,7.162,861
7163,7.163,898
7164,7.164,832
7165,7.165,814
7166,7.166,806
7167,7.167,808
7168,7.168,848
7169,7.169,851
7170,7.17,912
7171,7.171,1114
7172,7.172,1138
7173,7.173,977
7174,7.174,793
7175,7.175,725
7176,7.176,646
7177,7.177,719
7178,7.178,805
7179,7.179,864
7180,7.18,803
7181,7.181,847
7182,7.182,843
7183,7.183,938
7184,7.184,906
7185,7.185,857
7186,7.186,886
7187,7.187,897
7188,7.188,879
7189,7.189,950
7190,7.19,986
7191,7.191,1019
7192,7.192,1050
7193,7.193,947
7194,7.194,886
7195,7.195,893
7196,7.196,887
7197,7.197,871
7198,7.198,943
7199,7.199,883
7200,7.2,770
7201,7.201,690
7202,7.202,659
7203,7.203,816
7204,7.204,1050
7205,7.205,1011
7206,7.206,832
7207,7.207,815
7208,7.208,896
7209,7.209,854
7210,7.21,803
7211,7.211,720
7212,7.212,853
7213,7.213,1101
7214,7.214,1235
7215,7.215,1157
7216,7.216,977
7217,7.217,833
7218,7.218,648
7219,7.219,542
7220,7.22,614
7221,7.221,735
7222,7.222,947
7223,7.223,1072
7224,7.224,977
7225,7.225,962
7226,7.226,1071
7227,7.227,1066
7228,7.228,991
7229,7.229,865
7230,7.23,768
7231,7.231,808
7232,7.232,909
7233,7.233,964
7234,7.234,944
7235,7.235,823
7236,7.236,705
7237,7.237,784
7238,7.238,899
7239,7.239,958
7240,7.24,927
7241,7.241,871
7242,7.242,844
7243,7.243,845
7244,7.244,867
7245,7.245,950
7246,7.246,1032
7247,7.247,1035
7248,7.248,908
7249,7.249,848
7250,7.25,875
7251,7.251,911
7252,7.252,896
7253,7.253,909
7254,7.254,896
7255,7.255,881
7256,7.256,868
7257,7.257,849
7258,7.258,875
7259,7.259,847
7260,7.26,854
7261,7.261,907
7262,7.262,899
7263,7.263,832
7264,7.264,788
7265,7.265,674
7266,7.266,752
7267,7.267,880
7268,7.268,954
7269,7.269,963
7270,7.27,929
7271,7.271,957
7272,7.272,1013
7273,7.273,1003
7274,7.274,885
7275,7.275,912
7276,7.276,922
7277,7.277,848
7278,7.278,871
7279,7.279,852
7280,7.28,830
7281,7.281,826
7282,7.282,809
7283,7.283,765
7284,7.284,811
7285,7.285,944
7286,7.286,922
7287,7.287,897
7288,7.288,912
7289,7.289,938
7290,7.29,903
7291,7.291,862
7292,7.292,909
7293,7.293,925
7294,7.294,912
7295,7.295,880
7296,7.296,802
7297,7.297,809
7298,7.298,811
7299,7.299,890
7300,7.3,970
7301,7.301,944
7302,7.302,927
7303,7.303,912
7304,7.304,875
7305,7.305,848
7306,7.306,845
7307,7.307,885
7308,7.308,880
7309,7.309,875
7310,7.31,822
7311,7.311,849
7312,7.312,870
7313,7.313,910
7314,7.314,880
7315,7.315,803
7316,7.316,798
7317,7.317,861
7318,7.318,922
7319,7.319,922
7320,7.32,897
7321,7.321,912
7322,7.322,883
7323,7.323,898
7324,7.324,880
7325,7.325,840
7326,7.326,832
7327,7.327,935
7328,7.328,941
7329,7.329,881
7330,7.33,843
7331,7.331,866
7332,7.332,893
7333,7.333,871
7334,7.334,842
7335,7.335,848
7336,7.336,879
7337,7.337,870
7338,7.338,865
7339,7.339,896
7340,7.34,912
7341,7.341,881
7342,7.342,844
7343,7.343,865
7344,7.344,895
7345,7.345,907
7346,7.346,880
7347,7.347,863
7348,7.348,867
7349,7.349,841
7350,7.35,860
7351,7.351,870
7352,7.352,880
7353,7.353,899
7354,7.354,897
7355,7.355,880
7356,7.356,880
7357,7.357,880
7358,7.358,880
7359,7.359,882
7360,7.36,876
7361,7.361,835
7362,7.362,822
7363,7.363,875
7364,7.364,885
7365,7.365,898
7366,7.366,885
7367,7.367,851
7368,7.368,847
7369,7.369,867
7370,7.37,913
7371,7.371,912
7372,7.372,901
7373,7.373,893
7374,7.374,905
7375,7.375,895
7376,7.376,890
7377,7.377,870
7378,7.378,878
7379,7.379,871
7380,7.38,886
7381,7.381,875
7382,7.382,862
7383,7.383,863
7384,7.384,795
7385,7.385,867
7386,7.386,870
7387,7.387,871
7388,7.388,870
7389,7.389,841
7390,7.39,876
7391,7.391,871
7392,7.392,901
7393,7.393,912
7394,7.394,850
7395,7.395,885
7396,7.396,893
7397,7.397,883
7398,7.398,880
7399,7.399,881
7400,7.4,875
7401,7.401,879
7402,7.402,879
7403,7.403,895
7404,7.404,890
7405,7.405,880
7406,7.406,862
7407,7.407,871
7408,7.408,898
7409,7.409,912
7410,7.41,894
7411,7.411,890
7412,7.412,826
7413,7.413,847
7414,7.414,866
7415,7.415,875
7416,7.416,847
7417,7.417,910
7418,7.418,867
7419,7.419,870
7420,7.42,866
7421,7.421,877
7422,7.422,865
7423,7.423,819
7424,7.424,861
7425,7.425,871
7426,7.426,864
7427,7.427,848
7428,7.428,870
7429,7.429,871
7430,7.43,809
7431,7.431,883
7432,7.432,886
7433,7.433,890
7434,7.434,881
7435,7.435,893
7436,7.436,893
7437,7.437,883
7438,7.438,880
7439,7.439,864
7440,7.44,865
7441,7.441,875
7442,7.442,873
7443,7.443,865
7444,7.444,875
7445,7.445,864
7446,7.446,838
7447,7.447,867
7448,7.448,868
7449,7.449,860
7450,7.45,895
7451,7.451,884
7452,7.452,880
7453,7.453,885
7454,7.454,879
7455,7.455,890
7456,7.456,898
7457,7.457,902
7458,7.458,902
7459,7.459,880
7460,7.46,886
7461,7.461,865
7462,7.462,859
7463,7.463,852
7464,7.464,845
7465,7.465,880
7466,7.466,907
7467,7.467,915
7468,7.468,897
7469,7.469,880
7470,7.47,832
7471,7.471,843
7472,7.472,870
7473,7.473,871
7474,7.474,967
7475,7.475,891
7476,7.476,880
7477,7.477,879
7478,7.478,882
7479,7.479,873
7480,7.48,885
7481,7.481,881
7482,7.482,868
7483,7.483,880
7484,7.484,865
7485,7.485,864
7486,7.486,870
7487,7.487,880
7488,7.488,896
7489,7.489,884
7490,7.49,875
7491,7.491,879
7492,7.492,894
7493,7.493,896
7494,7.494,875
7495,7.495,889
7496,7.496,909
7497,7.497,912
7498,7.498,892
7499,7.499,888
7500,7.5,856
7501,7.501,855
7502,7.502,850
7503,7.503,869
7504,7.504,870
7505,7.505,867
7506,7.506,864
7507,7.507,864
7508,7.508,877
7509,7.509,835
7510,7.51,879
7511,7.511,879
7512,7.512,883
7513,7.513,881
7514,7.514,891
7515,7.515,886
7516,7.516,897
7517,7.517,878
7518,7.518,875
7519,7.519,887
7520,7.52,874
7521,7.521,869
7522,7.522,867
7523,7.523,869
7524,7.524,864
7525,7.525,862
7526,7.526,867
7527,7.527,896
7528,7.528,886
7529,7.529,885
7530,7.53,898
7531,7.531,881
7532,7.532,887
7533,7.533,883
7534,7.534,879
7535,7.535,882
7536,7.536,892
7537,7.537,883
7538,7.538,880
7539,7.539,880
7540,7.54,878
7541,7.541,870
7542,7.542,832
7543,7.543,866
7544,7.544,866
7545,7.545,874
7546,7.546,861
7547,7.547,878
7548,7.548,879
7549,7.549,878
7550,7.55,875
7551,7.551,880
7552,7.552,880
7553,7.553,885
7554,7.554,882
7555,7.555,880
7556,7.556,883
7557,7.557,875
7558,7.558,879
7559,7.559,882
7560,7.56,869
7561,7.561,879
7562,7.562,866
7563,7.563,865
7564,7.564,879
7565,7.565,871
7566,7.566,863
7567,7.567,880
7568,7.568,882
7569,7.569,891
7570,7.57,880
7571,7.571,873
7572,7.572,821
7573,7.573,881
7574,7.574,866
7575,7.575,880
7576,7.576,880
7577,7.577,881
7578,7.578,863
7579,7.579,880
7580,7.58,875
7581,7.581,878
7582,7.582,913
7583,7.583,870
7584,7.584,870
7585,7.585,866
7586,7.586,875
7587,7.587,866
7588,7.588,873
7589,7.589,867
7590,7.59,867
7591,7.591,879
7592,7.592,895
7593,7.593,891
7594,7.594,935
7595,7.595,871
7596,7.596,882
7597,7.597,895
7598,7.598,882
7599,7.599,881
7600,7.6,885
7601,7.601,880
7602,7.602,879
7603,7.603,877
7604,7.604,874
7605,7.605,879
7606,7.606,876
7607,7.607,875
7608,7.608,882
7609,7.609,871
7610,7.61,874
7611,7.611,884
7612,7.612,896
7613,7.613,893
7614,7.614,883
7615,7.615,877
7616,7.616,887
7617,7.617,896
7618,7.618,889
7619,7.619,892
7620,7.62,871
7621,7.621,893
7622,7.622,873
7623,7.623,867
7624,7.624,875
7625,7.625,880
7626,7.626,873
7627,7.627,877
7628,7.628,879
7629,7.629,870
7630,7.63,880
7631,7.631,912
7632,7.632,926
7633,7.633,930
7634,7.634,928
7635,7.635,895
7636,7.636,853
7637,7.637,864
7638,7.638,877
7639,7.639,870
7640,7.64,871
7641,7.641,864
7642,7.642,839
7643,7.643,787
7644,7.644,824
7645,7.645,842
7646,7.646,876
7647,7.647,886
7648,7.648,891
7649,7.649,887
7650,7.65,890
7651,7.651,890
7652,7.652,890
7653,7.653,897
7654,7.654,912
7655,7.655,887
7656,7.656,896
7657,7.657,885
7658,7.658,885
7659,7.659,882
7660,7.66,883
7661,7.661,880
7662,7.662,899
7663,7.663,869
7664,7.664,869
7665,7.665,880
7666,7.666,864
7667,7.667,879
7668,7.668,875
7669,7.669,883
7670,7.67,883
7671,7.671,880
7672,7.672,882
7673,7.673,890
7674,7.674,886
7675,7.675,885
7676,7.676,881
7677,7.677,885
7678,7.678,884
7679,7.679,880
7680,7.68,930
7681,7.681,881
7682,7.682,875
7683,7.683,866
7684,7.684,880
7685,7.685,875
7686,7.686,865
7687,7.687,874
7688,7.688,875
7689,7.689,880
7690,7.69,874
7691,7.691,884
7692,7.692,880
7693,7.693,880
7694,7.694,879
7695,7.695,865
7696,7.696,879
7697,7.697,893
7698,7.698,880
7699,7.699,883
7700,7.7,889
7701,7.701,875
7702,7.702,884
7703,7.703,869
7704,7.704,882
7705,7.705,889
7706,7.706,886
7707,7.707,908
7708,7.708,945
7709,7.709,976
7710,7.71,985
7711,7.711,991
7712,7.712,973
7713,7.713,899
7714,7.714,824
7715,7.715,784
7716,7.716,795
7717,7.717,791
7718,7.718,781
7719,7.719,846
7720,7.72,861
7721,7.721,826
7722,7.722,798
7723,7.723,820
7724,7.724,815
7725,7.725,859
7726,7.726,859
7727,7.727,870
7728,7.728,876
7729,7.729,881
7730,7.73,886
7731,7.731,889
7732,7.732,899
7733,7.733,886
7734,7.734,910
7735,7.735,932
7736,7.736,918
7737,7.737,915
7738,7.738,912
7739,7.739,960
7740,7.74,1050
7741,7.741,1089
7742,7.742,1072
7743,7.743,991
7744,7.744,817
7745,7.745,698
7746,7.746,737
7747,7.747,753
7748,7.748,758
7749,7.749,771
7750,7.75,778
7751,7.751,821
7752,7.752,870
7753,7.753,887
7754,7.754,890
7755,7.755,889
7756,7.756,894
7757,7.757,896
7758,7.758,901
7759,7.759,887
7760,7.76,903
7761,7.761,895
7762,7.762,887
7763,7.763,886
7764,7.764,886
7765,7.765,883
7766,7.766,880
7767,7.767,880
7768,7.768,887
7769,7.769,887
7770,7.77,880
7771,7.771,896
7772,7.772,891
7773,7.773,896
7774,7.774,896
7775,7.775,883
7776,7.776,885
7777,7.777,883
7778,7.778,883
7779,7.779,886
7780,7.78,881
7781,7.781,879
7782,7.782,870
7783,7.783,869
7784,7.784,879
7785,7.785,865
7786,7.786,875
7787,7.787,873
7788,7.788,880
7789,7.789,877
7790,7.79,881
7791,7.791,875
7792,7.792,875
7793,7.793,880
7794,7.794,878
7795,7.795,877
7796,7.796,885
7797,7.797,883
7798,7.798,886
7799,7.799,882
7800,7.8,879
7801,7.801,879
7802,7.802,880
7803,7.803,878
7804,7.804,874
7805,7.805,870
7806,7.806,880
7807,7.807,879
7808,7.808,881
7809,7.809,886
7810,7.81,885
7811,7.811,867
7812,7.812,839
7813,7.813,852
7814,7.814,871
7815,7.815,879
7816,7.816,879
7817,7.817,873
7818,7.818,851
7819,7.819,881
7820,7.82,889
7821,7.821,890
7822,7.822,893
7823,7.823,896
7824,7.824,882
7825,7.825,899
7826,7.826,903
7827,7.827,891
7828,7.828,895
7829,7.829,873
7830,7.83,819
7831,7.831,816
7832,7.832,862
7833,7.833,863
7834,7.834,869
7835,7.835,868
7836,7.836,879
7837,7.837,886
7838,7.838,881
7839,7.839,889
7840,7.84,885
7841,7.841,880
7842,7.842,887
7843,7.843,880
7844,7.844,885
7845,7.845,878
7846,7.846,874
7847,7.847,868
7848,7.848,880
7849,7.849,878
7850,7.85,882
7851,7.851,881
7852,7.852,885
7853,7.853,895
7854,7.854,880
7855,7.855,884
7856,7.856,882
7857,7.857,893
7858,7.858,880
7859,7.859,870
7860,7.86,889
7861,7.861,882
7862,7.862,870
7863,7.863,880
7864,7.864,877
7865,7.865,878
7866,7.866,869
7867,7.867,877
7868,7.868,892
7869,7.869,881
7870,7.87,910
7871,7.871,884
7872,7.872,887
7873,7.873,872
7874,7.874,874
7875,7.875,874
7876,7.876,871
7877,7.877,880
7878,7.878,880
7879,7.879,912
7880,7.88,878
7881,7.881,880
7882,7.882,880
7883,7.883,863
7884,7.884,877
7885,7.885,874
7886,7.886,867
7887,7.887,871
7888,7.888,887
7889,7.889,891
7890,7.89,875
7891,7.891,893
7892,7.892,885
7893,7.893,924
7894,7.894,919
7895,7.895,925
7896,7.896,941
7897,7.897,935
7898,7.898,903
7899,7.899,832
7900,7.9,819
7901,7.901,848
7902,7.902,854
7903,7.903,844
7904,7.904,861
7905,7.905,867
7906,7.906,878
7907,7.907,879
7908,7.908,897
7909,7.909,884
7910,7.91,879
7911,7.911,885
7912,7.912,896
7913,7.913,898
7914,7.914,880
7915,7.915,887
7916,7.916,891
7917,7.917,896
7918,7.918,895
7919,7.919,881
7920,7.92,880
7921,7.921,885
7922,7.922,889
7923,7.923,879
7924,7.924,870
7925,7.925,881
7926,7.926,876
7927,7.927,871
7928,7.928,889
7929,7.929,886
7930,7.93,882
7931,7.931,883
7932,7.932,878
7933,7.933,890
7934,7.934,881
7935,7.935,880
7936,7.936,881
7937,7.937,881
7938,7.938,885
7939,7.939,881
7940,7.94,887
7941,7.941,882
7942,7.942,884
7943,7.943,872
7944,7.944,874
7945,7.945,873
7946,7.946,866
7947,7.947,869
7948,7.948,879
7949,7.949,883
7950,7.95,881
7951,7.951,889
7952,7.952,887
7953,7.953,876
7954,7.954,880
7955,7.955,880
7956,7.956,866
7957,7.957,862
7958,7.958,871
7959,7.959,885
7960,7.96,880
7961,7.961,882
7962,7.962,880
7963,7.963,867
7964,7.964,880
7965,7.965,871
7966,7.966,870
7967,7.967,865
7968,7.968,871
7969,7.969,882
7970,7.97,889
7971,7.971,882
7972,7.972,912
7973,7.973,883
7974,7.974,886
7975,7.975,875
7976,7.976,886
7977,7.977,891
7978,7.978,879
7979,7.979,880
7980,7.98,883
7981,7.981,882
7982,7.982,880
7983,7.983,881
7984,7.984,870
7985,7.985,879
7986,7.986,874
7987,7.987,880
7988,7.988,869
7989,7.989,878
7990,7.99,877
7991,7.991,865
7992,7.992,878
7993,7.993,893
7994,7.994,879
7995,7.995,879
7996,7.996,890
7997,7.997,887
7998,7.998,889
7999,7.999,891
8000,8.0,882
8001,8.001,879
8002,8.002,875
8003,8.003,867
8004,8.004,866
8005,8.005,873
8006,8.006,874
8007,8.007,857
8008,8.008,862
8009,8.009,880
8010,8.01,881
8011,8.011,875
8012,8.012,882
8013,8.013,883
8014,8.014,894
8015,8.015,896
8016,8.016,897
8017,8.017,892
8018,8.018,887
8019,8.019,894
8020,8.02,883
8021,8.021,871
8022,8.022,880
8023,8.023,870
8024,8.024,865
8025,8.025,857
8026,8.026,863
8027,8.027,866
8028,8.028,865
8029,8.029,879
8030,8.03,880
8031,8.031,874
8032,8.032,880
8033,8.033,886
8034,8.034,881
8035,8.035,880
8036,8.036,857
8037,8.037,891
8038,8.038,890
8039,8.039,909
8040,8.04,917
8041,8.041,917
8042,8.042,898
8043,8.043,879
8044,8.044,830
8045,8.045,819
8046,8.046,843
8047,8.047,863
8048,8.048,894
8049,8.049,867
8050,8.05,880
8051,8.051,881
8052,8.052,884
8053,8.053,894
8054,8.054,886
8055,8.055,899
8056,8.056,905
8057,8.057,887
8058,8.058,896
8059,8.059,889
8060,8.06,883
8061,8.061,880
8062,8.062,800
8063,8.063,879
8064,8.064,875
8065,8.065,870
8066,8.066,880
8067,8.067,871
8068,8.068,870
8069,8.069,880
8070,8.07,880
8071,8.071,883
8072,8.072,881
8073,8.073,895
8074,8.074,882
8075,8.075,883
8076,8.076,893
8077,8.077,890
8078,8.078,881
8079,8.079,880
8080,8.08,880
8081,8.081,880
8082,8.082,850
8083,8.083,894
8084,8.084,860
8085,8.085,894
8086,8.086,867
8087,8.087,873
8088,8.088,853
8089,8.089,867
8090,8.09,869
8091,8.091,880
8092,8.092,884
8093,8.093,899
8094,8.094,887
8095,8.095,881
8096,8.096,814
8097,8.097,892
8098,8.098,883
8099,8.099,880
8100,8.1,877
8101,8.101,879
8102,8.102,880
8103,8.103,878
8104,8.104,866
8105,8.105,868
8106,8.106,870
8107,8.107,866
8108,8.108,880
8109,8.109,870
8110,8.11,875
8111,8.111,866
8112,8.112,876
8113,8.113,878
8114,8.114,890
8115,8.115,883
8116,8.116,893
